# Koester WD models
# teff = 5000 K (value for the effective temperature for the model. Temperatures are given in K)
# logg = 6.5 log(cm/s2) (value for Log(G) for the model.)
#
#   WAVELENGTH	#           FLUX	
#   (ANGSTROM)	#  (ERG/CM2/S/A)	
##############	################	
       899.230	     1.41155e-04	
       900.638	     1.48698e-04	
       902.048	     1.56615e-04	
       902.677	     1.60284e-04	
       903.456	     1.64926e-04	
       904.235	     1.69694e-04	
       905.793	     1.79620e-04	
       907.350	     1.90086e-04	
       908.573	     1.98705e-04	
       908.907	     2.01119e-04	
       909.241	     2.03560e-04	
       909.784	     2.07599e-04	
       909.908	     2.08526e-04	
       910.032	     2.09457e-04	
       910.279	     2.11329e-04	
       910.772	     2.15122e-04	
       911.485	     2.20712e-04	
       911.759	     2.22899e-04	
       911.881	     2.23870e-04	
       912.034	     2.25105e-04	
       912.582	     2.29579e-04	
       913.037	     2.33349e-04	
       913.241	     2.35062e-04	
       913.284	     2.35424e-04	
       913.478	     2.37066e-04	
       913.531	     2.37517e-04	
       913.755	     2.39421e-04	
       913.822	     2.39996e-04	
       914.080	     2.42221e-04	
       914.165	     2.42959e-04	
       914.499	     2.45877e-04	
       914.575	     2.46545e-04	
       915.071	     2.50942e-04	
       915.540	     2.55174e-04	
       915.609	     2.55794e-04	
       915.643	     2.56104e-04	
       915.677	     2.56414e-04	
       915.741	     2.57000e-04	
       915.813	     2.57660e-04	
       916.085	     2.60168e-04	
       916.429	     2.63372e-04	
       916.858	     2.67410e-04	
       917.118	     2.69891e-04	
       917.196	     2.70640e-04	
       917.378	     2.72394e-04	
       917.899	     2.77460e-04	
       917.952	     2.77981e-04	
       918.287	     2.81304e-04	
       918.602	     2.84450e-04	
       919.251	     2.90974e-04	
       920.215	     3.01118e-04	
       921.882	     3.19110e-04	
       921.999	     3.20546e-04	
       922.143	     3.22224e-04	
       922.405	     3.25189e-04	
       922.810	     3.29779e-04	
       923.621	     3.38284e-04	
       924.432	     3.48167e-04	
       925.001	     3.55955e-04	
       925.242	     3.59075e-04	
       925.484	     3.62100e-04	
       925.564	     3.63112e-04	
       925.966	     3.68104e-04	
       926.164	     3.70328e-04	
       926.369	     3.72599e-04	
       927.173	     3.82219e-04	
       927.276	     3.83507e-04	
       928.182	     3.95759e-04	
       928.917	     4.06711e-04	
       928.980	     4.07710e-04	
       929.089	     4.09437e-04	
       929.261	     4.12202e-04	
       929.317	     4.13085e-04	
       929.543	     4.16669e-04	
       929.655	     4.18350e-04	
       929.769	     4.20009e-04	
       929.827	     4.20851e-04	
       929.883	     4.21665e-04	
       929.910	     4.22054e-04	
       929.939	     4.22478e-04	
       929.954	     4.22695e-04	
       929.968	     4.22899e-04	
       929.982	     4.23103e-04	
       929.996	     4.23308e-04	
       930.010	     4.23512e-04	
       930.024	     4.23716e-04	
       930.038	     4.23920e-04	
       930.052	     4.24128e-04	
       930.081	     4.24552e-04	
       930.137	     4.25372e-04	
       930.201	     4.26308e-04	
       930.247	     4.26986e-04	
       930.249	     4.27015e-04	
       930.251	     4.27043e-04	
       930.301	     4.27778e-04	
       930.326	     4.28130e-04	
       930.329	     4.28174e-04	
       930.402	     4.29233e-04	
       930.478	     4.30301e-04	
       930.630	     4.32327e-04	
       930.931	     4.36216e-04	
       931.229	     4.40156e-04	
       931.490	     4.43684e-04	
       931.534	     4.44303e-04	
       931.838	     4.48563e-04	
       932.447	     4.57494e-04	
       933.265	     4.70199e-04	
       933.403	     4.72417e-04	
       933.432	     4.72869e-04	
       933.542	     4.74651e-04	
       933.652	     4.76445e-04	
       933.872	     4.80076e-04	
       933.973	     4.81760e-04	
       934.073	     4.83438e-04	
       934.312	     4.87500e-04	
       934.316	     4.87569e-04	
       934.652	     4.93397e-04	
       935.230	     5.03817e-04	
       935.688	     5.12482e-04	
       936.144	     5.21407e-04	
       936.372	     5.25984e-04	
       936.601	     5.30423e-04	
       936.714	     5.32509e-04	
       936.829	     5.34595e-04	
       936.887	     5.35648e-04	
       936.944	     5.36685e-04	
       936.973	     5.37212e-04	
       937.001	     5.37721e-04	
       937.015	     5.37976e-04	
       937.029	     5.38233e-04	
       937.043	     5.38488e-04	
       937.058	     5.38761e-04	
       937.072	     5.39019e-04	
       937.086	     5.39273e-04	
       937.101	     5.39550e-04	
       937.115	     5.39804e-04	
       937.143	     5.40316e-04	
       937.200	     5.41362e-04	
       937.314	     5.43458e-04	
       937.493	     5.46741e-04	
       937.542	     5.47620e-04	
       937.593	     5.48513e-04	
       937.694	     5.50228e-04	
       937.788	     5.51786e-04	
       937.894	     5.53514e-04	
       938.000	     5.55229e-04	
       938.212	     5.58704e-04	
       938.359	     5.61167e-04	
       938.556	     5.64491e-04	
       938.636	     5.65873e-04	
       938.914	     5.70683e-04	
       939.231	     5.76322e-04	
       939.271	     5.77048e-04	
       939.986	     5.90390e-04	
       940.740	     6.05178e-04	
       941.452	     6.19792e-04	
       942.250	     6.36653e-04	
       943.048	     6.53888e-04	
       943.978	     6.74465e-04	
       944.643	     6.89514e-04	
       945.308	     7.05099e-04	
       946.115	     7.24869e-04	
       946.233	     7.27860e-04	
       946.637	     7.38277e-04	
       947.158	     7.52198e-04	
       947.621	     7.64924e-04	
       948.083	     7.78097e-04	
       948.314	     7.84694e-04	
       948.546	     7.91018e-04	
       948.661	     7.94053e-04	
       948.777	     7.97104e-04	
       948.835	     7.98631e-04	
       948.893	     8.00161e-04	
       948.922	     8.00927e-04	
       948.951	     8.01694e-04	
       948.966	     8.02089e-04	
       948.980	     8.02460e-04	
       948.994	     8.02831e-04	
       949.009	     8.03230e-04	
       949.023	     8.03601e-04	
       949.037	     8.03971e-04	
       949.052	     8.04370e-04	
       949.066	     8.04741e-04	
       949.095	     8.05511e-04	
       949.153	     8.07053e-04	
       949.230	     8.09108e-04	
       949.258	     8.09852e-04	
       949.269	     8.10148e-04	
       949.280	     8.10443e-04	
       949.330	     8.11778e-04	
       949.360	     8.12582e-04	
       949.430	     8.14455e-04	
       949.500	     8.16311e-04	
       949.640	     8.19937e-04	
       949.795	     8.23754e-04	
       949.879	     8.25802e-04	
       949.921	     8.26817e-04	
       949.963	     8.27832e-04	
       950.047	     8.29823e-04	
       950.131	     8.31875e-04	
       950.467	     8.40043e-04	
       950.718	     8.46270e-04	
       950.888	     8.50558e-04	
       951.728	     8.72445e-04	
       952.738	     9.00647e-04	
       953.748	     9.31165e-04	
       954.758	     9.63765e-04	
       955.522	     9.89397e-04	
       955.694	     9.95238e-04	
       955.768	     9.97754e-04	
       956.014	     1.00619e-03	
       956.506	     1.02343e-03	
       957.491	     1.05857e-03	
       958.148	     1.08267e-03	
       959.289	     1.12564e-03	
       960.430	     1.17009e-03	
       961.192	     1.20078e-03	
       961.571	     1.21627e-03	
       962.712	     1.26401e-03	
       964.231	     1.32992e-03	
       965.750	     1.39872e-03	
       966.507	     1.43415e-03	
       966.767	     1.44650e-03	
       967.269	     1.47060e-03	
       968.032	     1.50771e-03	
       968.668	     1.53909e-03	
       968.979	     1.55456e-03	
       969.297	     1.57040e-03	
       969.453	     1.57814e-03	
       969.927	     1.60137e-03	
       970.400	     1.62314e-03	
       970.638	     1.63252e-03	
       970.874	     1.63974e-03	
       971.110	     1.64324e-03	
       971.348	     1.64262e-03	
       971.467	     1.64229e-03	
       971.585	     1.64832e-03	
       971.644	     1.65436e-03	
       971.703	     1.66147e-03	
       971.732	     1.66512e-03	
       971.762	     1.66834e-03	
       971.778	     1.66950e-03	
       971.792	     1.67027e-03	
       971.806	     1.67101e-03	
       971.821	     1.67179e-03	
       971.827	     1.67211e-03	
       971.833	     1.67242e-03	
       971.836	     1.67258e-03	
       971.839	     1.67274e-03	
       971.851	     1.67337e-03	
       971.866	     1.67415e-03	
       971.880	     1.67489e-03	
       971.910	     1.67628e-03	
       971.969	     1.67586e-03	
       972.037	     1.67470e-03	
       972.087	     1.67473e-03	
       972.137	     1.67619e-03	
       972.150	     1.67672e-03	
       972.199	     1.68010e-03	
       972.237	     1.68356e-03	
       972.324	     1.69331e-03	
       972.499	     1.71302e-03	
       972.798	     1.74227e-03	
       973.047	     1.76235e-03	
       973.097	     1.76607e-03	
       973.248	     1.77688e-03	
       973.396	     1.78697e-03	
       973.746	     1.80975e-03	
       974.444	     1.85329e-03	
       975.640	     1.92715e-03	
       976.759	     1.99765e-03	
       978.032	     2.08030e-03	
       979.305	     2.16584e-03	
       979.778	     2.19842e-03	
       980.578	     2.25444e-03	
       981.851	     2.34619e-03	
       983.923	     2.50270e-03	
       985.373	     2.61771e-03	
       985.996	     2.66853e-03	
       986.414	     2.70317e-03	
       986.618	     2.72022e-03	
       987.863	     2.82633e-03	
       989.312	     2.95457e-03	
       990.541	     3.06738e-03	
       990.761	     3.08801e-03	
       992.210	     3.22695e-03	
       993.880	     3.39402e-03	
       995.549	     3.56888e-03	
       995.989	     3.61635e-03	
       997.218	     3.75191e-03	
       997.574	     3.79206e-03	
       997.806	     3.81845e-03	
       998.447	     3.89209e-03	
       999.319	     3.99447e-03	
       999.435	     4.00830e-03	
      1001.064	     4.20684e-03	
      1002.694	     4.41435e-03	
      1004.323	     4.63115e-03	
      1005.836	     4.84113e-03	
      1005.952	     4.85759e-03	
      1007.581	     5.09409e-03	
      1009.326	     5.35902e-03	
      1011.071	     5.63599e-03	
      1011.303	     5.67378e-03	
      1012.816	     5.92583e-03	
      1014.329	     6.18963e-03	
      1015.842	     6.46537e-03	
      1017.355	     6.74993e-03	
      1018.404	     6.95407e-03	
      1018.868	     7.04747e-03	
      1019.332	     7.13927e-03	
      1019.477	     7.16817e-03	
      1020.261	     7.32535e-03	
      1021.044	     7.48315e-03	
      1022.180	     7.70633e-03	
      1022.611	     7.78524e-03	
      1023.043	     7.85568e-03	
      1023.474	     7.90912e-03	
      1023.769	     7.93133e-03	
      1023.905	     7.93538e-03	
      1024.041	     7.93613e-03	
      1024.086	     7.93613e-03	
      1024.290	     7.93287e-03	
      1024.313	     7.93218e-03	
      1024.415	     7.93017e-03	
      1024.540	     7.92564e-03	
      1024.666	     7.92834e-03	
      1024.791	     7.96001e-03	
      1024.852	     7.98684e-03	
      1024.915	     8.01870e-03	
      1024.947	     8.03525e-03	
      1024.978	     8.04898e-03	
      1024.993	     8.05376e-03	
      1025.009	     8.05768e-03	
      1025.025	     8.06133e-03	
      1025.040	     8.06469e-03	
      1025.056	     8.06830e-03	
      1025.072	     8.07191e-03	
      1025.087	     8.07528e-03	
      1025.103	     8.07889e-03	
      1025.134	     8.08574e-03	
      1025.196	     8.08787e-03	
      1025.271	     8.08360e-03	
      1025.320	     8.08256e-03	
      1025.371	     8.08615e-03	
      1025.471	     8.10914e-03	
      1025.571	     8.15240e-03	
      1025.671	     8.20176e-03	
      1025.868	     8.29735e-03	
      1025.871	     8.29877e-03	
      1026.070	     8.39352e-03	
      1026.168	     8.43873e-03	
      1026.469	     8.56753e-03	
      1026.769	     8.68204e-03	
      1027.069	     8.78449e-03	
      1027.472	     8.91044e-03	
      1027.669	     8.96884e-03	
      1028.270	     9.13990e-03	
      1028.796	     9.28491e-03	
      1029.067	     9.35865e-03	
      1029.338	     9.43244e-03	
      1029.881	     9.57963e-03	
      1030.965	     9.87745e-03	
      1033.082	     1.04746e-02	
      1033.135	     1.04897e-02	
      1033.187	     1.05047e-02	
      1033.230	     1.05171e-02	
      1033.291	     1.05348e-02	
      1033.499	     1.05952e-02	
      1033.915	     1.07169e-02	
      1034.747	     1.09642e-02	
      1036.265	     1.14289e-02	
      1037.783	     1.19111e-02	
      1039.172	     1.23680e-02	
      1039.258	     1.23968e-02	
      1039.301	     1.24112e-02	
      1039.344	     1.24257e-02	
      1039.504	     1.24794e-02	
      1039.516	     1.24835e-02	
      1039.860	     1.25998e-02	
      1040.549	     1.28354e-02	
      1041.925	     1.33187e-02	
      1044.347	     1.42093e-02	
      1046.768	     1.51542e-02	
      1049.029	     1.60883e-02	
      1049.189	     1.61564e-02	
      1049.349	     1.62247e-02	
      1049.670	     1.63626e-02	
      1050.310	     1.66416e-02	
      1051.591	     1.72127e-02	
      1053.952	     1.83131e-02	
      1054.152	     1.84092e-02	
      1054.352	     1.85058e-02	
      1054.752	     1.87005e-02	
      1054.952	     1.87985e-02	
      1055.553	     1.90954e-02	
      1057.153	     1.99084e-02	
      1059.355	     2.10781e-02	
      1061.556	     2.23073e-02	
      1063.156	     2.32423e-02	
      1063.757	     2.36020e-02	
      1064.357	     2.39669e-02	
      1065.558	     2.47121e-02	
      1066.558	     2.53493e-02	
      1067.959	     2.62668e-02	
      1069.359	     2.72146e-02	
      1069.960	     2.76320e-02	
      1072.161	     2.92131e-02	
      1074.362	     3.08770e-02	
      1076.563	     3.26273e-02	
      1078.163	     3.39572e-02	
      1078.687	     3.44030e-02	
      1078.764	     3.44686e-02	
      1078.980	     3.46546e-02	
      1079.364	     3.49870e-02	
      1080.565	     3.60416e-02	
      1080.712	     3.61720e-02	
      1082.442	     3.77487e-02	
      1084.173	     3.93883e-02	
      1085.905	     4.10930e-02	
      1087.637	     4.28645e-02	
      1089.318	     4.46530e-02	
      1089.367	     4.47061e-02	
      1089.418	     4.47617e-02	
      1089.518	     4.48707e-02	
      1089.718	     4.50897e-02	
      1090.119	     4.55305e-02	
      1090.669	     4.61431e-02	
      1090.919	     4.64239e-02	
      1092.520	     4.82596e-02	
      1094.370	     5.04643e-02	
      1096.221	     5.27615e-02	
      1096.771	     5.34624e-02	
      1098.072	     5.51538e-02	
      1099.372	     5.68936e-02	
      1099.573	     5.71647e-02	
      1101.974	     6.05118e-02	
      1104.374	     6.40376e-02	
      1106.775	     6.77510e-02	
      1108.976	     7.13277e-02	
      1109.176	     7.16613e-02	
      1109.376	     7.19962e-02	
      1109.777	     7.26757e-02	
      1109.977	     7.30178e-02	
      1110.577	     7.40527e-02	
      1112.177	     7.68779e-02	
      1114.378	     8.09237e-02	
      1116.579	     8.51639e-02	
      1118.180	     8.83739e-02	
      1118.684	     8.94078e-02	
      1118.780	     8.96061e-02	
      1119.380	     9.08539e-02	
      1120.076	     9.23214e-02	
      1121.469	     9.53213e-02	
      1123.778	     1.00492e-01	
      1124.254	     1.01587e-01	
      1124.730	     1.02688e-01	
      1125.682	     1.04924e-01	
      1125.790	     1.05181e-01	
      1127.075	     1.08273e-01	
      1127.587	     1.09529e-01	
      1129.384	     1.14042e-01	
      1131.692	     1.20093e-01	
      1132.463	     1.22176e-01	
      1134.001	     1.26434e-01	
      1135.540	     1.30827e-01	
      1137.846	     1.37672e-01	
      1138.617	     1.40029e-01	
      1139.387	     1.42420e-01	
      1140.927	     1.47312e-01	
      1143.628	     1.56242e-01	
      1143.948	     1.57330e-01	
      1144.008	     1.57535e-01	
      1144.388	     1.58838e-01	
      1145.149	     1.61472e-01	
      1146.669	     1.66848e-01	
      1149.390	     1.76843e-01	
      1149.830	     1.78500e-01	
      1152.111	     1.87305e-01	
      1154.391	     1.96433e-01	
      1156.672	     2.05907e-01	
      1158.513	     2.13799e-01	
      1158.953	     2.15718e-01	
      1159.393	     2.17652e-01	
      1159.673	     2.18889e-01	
      1160.273	     2.21549e-01	
      1162.034	     2.29508e-01	
      1164.394	     2.40518e-01	
      1166.755	     2.51939e-01	
      1168.835	     2.62330e-01	
      1169.115	     2.63753e-01	
      1169.395	     2.65179e-01	
      1169.956	     2.68062e-01	
      1171.076	     2.73933e-01	
      1172.236	     2.80156e-01	
      1173.317	     2.86145e-01	
      1173.717	     2.88405e-01	
      1174.397	     2.92317e-01	
      1176.557	     3.05245e-01	
      1177.860	     3.13418e-01	
      1179.398	     3.23480e-01	
      1180.936	     3.33926e-01	
      1182.858	     3.47466e-01	
      1184.013	     3.55842e-01	
      1185.168	     3.64387e-01	
      1185.558	     3.67299e-01	
      1187.479	     3.81974e-01	
      1189.400	     3.97154e-01	
      1191.322	     4.12890e-01	
      1192.085	     4.19299e-01	
      1193.243	     4.29208e-01	
      1194.034	     4.36088e-01	
      1194.402	     4.39323e-01	
      1196.718	     4.60190e-01	
      1199.403	     4.85464e-01	
      1199.771	     4.89023e-01	
      1202.087	     5.12054e-01	
      1204.404	     5.36216e-01	
      1206.720	     5.61538e-01	
      1208.669	     5.83695e-01	
      1209.037	     5.87990e-01	
      1209.405	     5.92313e-01	
      1209.957	     5.98857e-01	
      1210.141	     6.01053e-01	
      1210.167	     6.01364e-01	
      1210.325	     6.03261e-01	
      1210.693	     6.07729e-01	
      1211.429	     6.16704e-01	
      1211.508	     6.17672e-01	
      1212.691	     6.32242e-01	
      1213.283	     6.39521e-01	
      1213.875	     6.46866e-01	
      1214.171	     6.50567e-01	
      1214.467	     6.54290e-01	
      1214.615	     6.56156e-01	
      1214.763	     6.58029e-01	
      1214.837	     6.58965e-01	
      1214.911	     6.59904e-01	
      1214.948	     6.60375e-01	
      1214.985	     6.60847e-01	
      1215.004	     6.61088e-01	
      1215.022	     6.61315e-01	
      1215.040	     6.61544e-01	
      1215.059	     6.61786e-01	
      1215.077	     6.62015e-01	
      1215.095	     6.62245e-01	
      1215.114	     6.62486e-01	
      1215.132	     6.62716e-01	
      1215.169	     6.63190e-01	
      1215.243	     6.64133e-01	
      1215.391	     6.66027e-01	
      1215.637	     6.69184e-01	
      1215.687	     6.69825e-01	
      1215.737	     6.70469e-01	
      1215.795	     6.71217e-01	
      1215.837	     6.71760e-01	
      1216.037	     6.74346e-01	
      1216.064	     6.74695e-01	
      1216.279	     6.77484e-01	
      1216.763	     6.83805e-01	
      1217.462	     6.93023e-01	
      1218.315	     7.04285e-01	
      1218.861	     7.11445e-01	
      1218.985	     7.13079e-01	
      1219.407	     7.18614e-01	
      1219.829	     7.24150e-01	
      1220.104	     7.27791e-01	
      1220.673	     7.35177e-01	
      1222.361	     7.58123e-01	
      1224.619	     7.90063e-01	
      1226.876	     8.23528e-01	
      1228.858	     8.54161e-01	
      1229.134	     8.58506e-01	
      1229.409	     8.62873e-01	
      1229.740	     8.68179e-01	
      1229.959	     8.71707e-01	
      1230.178	     8.75251e-01	
      1230.616	     8.82385e-01	
      1231.492	     8.96812e-01	
      1231.694	     9.00173e-01	
      1233.244	     9.26396e-01	
      1234.794	     9.53351e-01	
      1236.380	     9.81697e-01	
      1237.895	     1.00951e+00	
      1239.410	     1.03799e+00	
      1240.470	     1.05836e+00	
      1242.441	     1.09726e+00	
      1244.411	     1.13745e+00	
      1247.291	     1.19867e+00	
      1248.352	     1.22194e+00	
      1248.652	     1.22860e+00	
      1249.412	     1.24563e+00	
      1251.532	     1.29426e+00	
      1254.413	     1.36306e+00	
      1255.173	     1.38175e+00	
      1257.293	     1.43513e+00	
      1259.413	     1.49037e+00	
