# Koester WD models
# teff = 5000 K (value for the effective temperature for the model. Temperatures are given in K)
# logg = 7 log(cm/s2) (value for Log(G) for the model.)
#
#   WAVELENGTH	#           FLUX	
#   (ANGSTROM)	#  (ERG/CM2/S/A)	
##############	################	
       899.230	     1.46222e-04	
       900.638	     1.54027e-04	
       902.048	     1.62220e-04	
       902.677	     1.66015e-04	
       903.456	     1.70819e-04	
       904.235	     1.75752e-04	
       905.793	     1.86020e-04	
       907.350	     1.96847e-04	
       908.573	     2.05764e-04	
       908.907	     2.08261e-04	
       909.241	     2.10786e-04	
       909.784	     2.14964e-04	
       909.908	     2.15922e-04	
       910.032	     2.16885e-04	
       910.279	     2.18822e-04	
       910.772	     2.22745e-04	
       911.485	     2.28527e-04	
       911.759	     2.30788e-04	
       911.881	     2.31793e-04	
       912.034	     2.33070e-04	
       912.582	     2.37698e-04	
       913.037	     2.41597e-04	
       913.241	     2.43369e-04	
       913.284	     2.43744e-04	
       913.478	     2.45442e-04	
       913.531	     2.45908e-04	
       913.755	     2.47877e-04	
       913.822	     2.48471e-04	
       914.080	     2.50773e-04	
       914.165	     2.51536e-04	
       914.499	     2.54554e-04	
       914.575	     2.55245e-04	
       915.071	     2.59791e-04	
       915.540	     2.64169e-04	
       915.609	     2.64809e-04	
       915.643	     2.65130e-04	
       915.677	     2.65451e-04	
       915.741	     2.66056e-04	
       915.813	     2.66739e-04	
       916.085	     2.69333e-04	
       916.429	     2.72646e-04	
       916.858	     2.76822e-04	
       917.118	     2.79388e-04	
       917.196	     2.80162e-04	
       917.378	     2.81976e-04	
       917.899	     2.87219e-04	
       917.952	     2.87759e-04	
       918.287	     2.91191e-04	
       918.602	     2.94443e-04	
       919.251	     3.01272e-04	
       920.215	     3.11676e-04	
       921.882	     3.30235e-04	
       921.999	     3.31762e-04	
       922.143	     3.33499e-04	
       922.405	     3.36565e-04	
       922.810	     3.41309e-04	
       923.215	     3.45047e-04	
       923.621	     3.48805e-04	
       924.026	     3.53470e-04	
       924.432	     3.59254e-04	
       924.837	     3.65845e-04	
       925.001	     3.68355e-04	
       925.242	     3.71594e-04	
       925.484	     3.74726e-04	
       925.564	     3.75769e-04	
       925.966	     3.80912e-04	
       926.369	     3.84760e-04	
       926.771	     3.88351e-04	
       926.969	     3.90396e-04	
       927.576	     3.97675e-04	
       928.182	     4.06503e-04	
       928.489	     4.11574e-04	
       928.789	     4.17006e-04	
       928.917	     4.19484e-04	
       928.980	     4.20684e-04	
       929.089	     4.22840e-04	
       929.261	     4.26176e-04	
       929.317	     4.27219e-04	
       929.543	     4.31136e-04	
       929.655	     4.32874e-04	
       929.769	     4.34583e-04	
       929.827	     4.35453e-04	
       929.883	     4.36292e-04	
       929.910	     4.36700e-04	
       929.939	     4.37134e-04	
       929.954	     4.37360e-04	
       929.968	     4.37570e-04	
       929.982	     4.37784e-04	
       929.996	     4.37995e-04	
       930.010	     4.38205e-04	
       930.024	     4.38416e-04	
       930.038	     4.38629e-04	
       930.052	     4.38840e-04	
       930.081	     4.39276e-04	
       930.137	     4.40125e-04	
       930.201	     4.41095e-04	
       930.247	     4.41793e-04	
       930.249	     4.41824e-04	
       930.251	     4.41856e-04	
       930.301	     4.42616e-04	
       930.326	     4.42980e-04	
       930.329	     4.43024e-04	
       930.402	     4.44121e-04	
       930.478	     4.45223e-04	
       930.630	     4.47209e-04	
       930.931	     4.50429e-04	
       931.229	     4.53307e-04	
       931.534	     4.56577e-04	
       931.838	     4.60130e-04	
       932.447	     4.68452e-04	
       932.707	     4.72238e-04	
       933.055	     4.77610e-04	
       933.265	     4.80975e-04	
       933.403	     4.83227e-04	
       933.432	     4.83689e-04	
       933.542	     4.85511e-04	
       933.652	     4.87355e-04	
       933.872	     4.91109e-04	
       933.973	     4.92866e-04	
       934.073	     4.94628e-04	
       934.312	     4.98951e-04	
       934.316	     4.99026e-04	
       934.652	     5.05322e-04	
       934.773	     5.07644e-04	
       935.230	     5.17094e-04	
       935.687	     5.27505e-04	
       936.144	     5.38645e-04	
       936.372	     5.43960e-04	
       936.601	     5.48701e-04	
       936.714	     5.50850e-04	
       936.829	     5.53002e-04	
       936.887	     5.54092e-04	
       936.944	     5.55163e-04	
       936.973	     5.55707e-04	
       937.001	     5.56235e-04	
       937.015	     5.56499e-04	
       937.029	     5.56762e-04	
       937.043	     5.57026e-04	
       937.058	     5.57309e-04	
       937.072	     5.57573e-04	
       937.086	     5.57840e-04	
       937.101	     5.58123e-04	
       937.115	     5.58387e-04	
       937.143	     5.58918e-04	
       937.200	     5.59995e-04	
       937.314	     5.62163e-04	
       937.493	     5.65559e-04	
       937.542	     5.66470e-04	
       937.593	     5.67394e-04	
       937.694	     5.69106e-04	
       937.788	     5.70579e-04	
       937.894	     5.72112e-04	
       938.000	     5.73532e-04	
       938.212	     5.76178e-04	
       938.359	     5.77975e-04	
       938.556	     5.80491e-04	
       938.636	     5.81584e-04	
       938.914	     5.85455e-04	
       939.271	     5.90987e-04	
       939.986	     6.03519e-04	
       940.580	     6.15045e-04	
       940.660	     6.16657e-04	
       940.675	     6.16962e-04	
       940.700	     6.17467e-04	
       940.740	     6.18281e-04	
       940.787	     6.19236e-04	
       940.901	     6.21558e-04	
       941.221	     6.28253e-04	
       941.861	     6.41821e-04	
       941.918	     6.43024e-04	
       943.048	     6.67815e-04	
       943.457	     6.76979e-04	
       944.178	     6.93447e-04	
       944.382	     6.98232e-04	
       945.308	     7.20336e-04	
       946.233	     7.44583e-04	
       947.158	     7.72508e-04	
       947.621	     7.88094e-04	
       948.083	     8.04003e-04	
       948.314	     8.11329e-04	
       948.546	     8.17926e-04	
       948.661	     8.21052e-04	
       948.777	     8.24200e-04	
       948.835	     8.25777e-04	
       948.893	     8.27357e-04	
       948.922	     8.28149e-04	
       948.951	     8.28944e-04	
       948.966	     8.29352e-04	
       948.980	     8.29735e-04	
       948.994	     8.30119e-04	
       949.009	     8.30527e-04	
       949.023	     8.30910e-04	
       949.037	     8.31294e-04	
       949.052	     8.31705e-04	
       949.066	     8.32092e-04	
       949.095	     8.32886e-04	
       949.153	     8.34479e-04	
       949.230	     8.36600e-04	
       949.258	     8.37370e-04	
       949.269	     8.37674e-04	
       949.280	     8.37979e-04	
       949.330	     8.39358e-04	
       949.360	     8.40188e-04	
       949.430	     8.42123e-04	
       949.500	     8.44052e-04	
       949.640	     8.47790e-04	
       949.795	     8.51598e-04	
       949.879	     8.53520e-04	
       949.921	     8.54447e-04	
       949.963	     8.55333e-04	
       950.047	     8.57052e-04	
       950.131	     8.58707e-04	
       950.467	     8.65060e-04	
       950.888	     8.73334e-04	
       951.728	     8.92401e-04	
       952.400	     9.10170e-04	
       952.569	     9.14973e-04	
       952.738	     9.19868e-04	
       953.076	     9.29993e-04	
       953.753	     9.51067e-04	
       954.198	     9.65663e-04	
       955.106	     9.96397e-04	
       956.014	     1.02881e-03	
       956.370	     1.04176e-03	
       957.830	     1.09632e-03	
       958.148	     1.10855e-03	
       959.289	     1.15337e-03	
       960.430	     1.19955e-03	
       961.192	     1.23116e-03	
       962.712	     1.29581e-03	
       964.231	     1.36354e-03	
       965.750	     1.43426e-03	
       966.507	     1.47055e-03	
       966.767	     1.48320e-03	
       967.269	     1.50787e-03	
       968.032	     1.54591e-03	
       968.668	     1.57811e-03	
       968.979	     1.59401e-03	
       969.297	     1.61030e-03	
       969.927	     1.64227e-03	
       970.401	     1.66510e-03	
       970.638	     1.67518e-03	
       970.874	     1.68305e-03	
       970.992	     1.68596e-03	
       971.110	     1.68697e-03	
       971.230	     1.68574e-03	
       971.348	     1.68235e-03	
       971.535	     1.68031e-03	
       971.567	     1.68258e-03	
       971.584	     1.68448e-03	
       971.635	     1.69274e-03	
       971.644	     1.69489e-03	
       971.703	     1.71085e-03	
       971.732	     1.71846e-03	
       971.762	     1.72356e-03	
       971.778	     1.72489e-03	
       971.792	     1.72569e-03	
       971.806	     1.72645e-03	
       971.821	     1.72726e-03	
       971.827	     1.72758e-03	
       971.833	     1.72791e-03	
       971.836	     1.72807e-03	
       971.839	     1.72823e-03	
       971.851	     1.72888e-03	
       971.866	     1.72969e-03	
       971.880	     1.73045e-03	
       971.910	     1.73182e-03	
       971.969	     1.72643e-03	
       972.037	     1.71525e-03	
       972.087	     1.71167e-03	
       972.137	     1.71224e-03	
       972.150	     1.71315e-03	
       972.199	     1.71735e-03	
       972.237	     1.72195e-03	
       972.324	     1.73414e-03	
       972.348	     1.73772e-03	
       972.499	     1.75809e-03	
       972.649	     1.77482e-03	
       972.798	     1.78851e-03	
       973.047	     1.80852e-03	
       973.097	     1.81222e-03	
       973.248	     1.82297e-03	
       973.396	     1.83306e-03	
       973.746	     1.85598e-03	
       974.444	     1.90030e-03	
       975.640	     1.97574e-03	
       976.759	     2.04772e-03	
       978.032	     2.13218e-03	
       979.305	     2.21957e-03	
       979.778	     2.25286e-03	
       980.578	     2.31008e-03	
       981.851	     2.40379e-03	
       983.923	     2.56372e-03	
       985.373	     2.68123e-03	
       985.996	     2.73315e-03	
       986.414	     2.76854e-03	
       986.618	     2.78597e-03	
       987.863	     2.89437e-03	
       989.312	     3.02533e-03	
       990.541	     3.14053e-03	
       990.761	     3.16160e-03	
       992.210	     3.30342e-03	
       993.880	     3.47394e-03	
       995.549	     3.65238e-03	
       995.989	     3.70083e-03	
       997.218	     3.83909e-03	
       997.574	     3.88006e-03	
       997.806	     3.90695e-03	
       998.447	     3.98206e-03	
       999.319	     4.08652e-03	
       999.435	     4.10063e-03	
      1001.064	     4.30310e-03	
      1002.694	     4.51472e-03	
      1004.323	     4.73576e-03	
      1005.836	     4.94989e-03	
      1005.952	     4.96667e-03	
      1007.581	     5.20785e-03	
      1009.326	     5.47803e-03	
      1011.071	     5.76058e-03	
      1011.303	     5.79916e-03	
      1012.816	     6.05633e-03	
      1014.329	     6.32472e-03	
      1015.378	     6.51755e-03	
      1015.842	     6.60498e-03	
      1017.355	     6.89517e-03	
      1017.620	     6.94842e-03	
      1019.046	     7.23424e-03	
      1019.332	     7.29236e-03	
      1021.044	     7.64639e-03	
      1022.044	     7.85310e-03	
      1022.543	     7.95238e-03	
      1023.043	     8.04245e-03	
      1023.542	     8.11244e-03	
      1023.791	     8.13431e-03	
      1024.041	     8.14304e-03	
      1024.291	     8.13716e-03	
      1024.415	     8.12425e-03	
      1024.540	     8.10569e-03	
      1024.666	     8.09469e-03	
      1024.791	     8.12752e-03	
      1024.852	     8.17574e-03	
      1024.915	     8.24602e-03	
      1024.947	     8.27995e-03	
      1024.978	     8.30131e-03	
      1024.993	     8.30681e-03	
      1025.009	     8.31096e-03	
      1025.025	     8.31470e-03	
      1025.040	     8.31818e-03	
      1025.056	     8.32189e-03	
      1025.072	     8.32560e-03	
      1025.087	     8.32908e-03	
      1025.103	     8.33279e-03	
      1025.134	     8.33983e-03	
      1025.196	     8.32949e-03	
      1025.271	     8.27904e-03	
      1025.320	     8.25868e-03	
      1025.371	     8.25212e-03	
      1025.471	     8.27979e-03	
      1025.521	     8.30587e-03	
      1025.571	     8.33449e-03	
      1025.621	     8.36631e-03	
      1025.721	     8.42852e-03	
      1025.772	     8.45896e-03	
      1025.921	     8.54042e-03	
      1026.070	     8.61211e-03	
      1026.369	     8.74327e-03	
      1026.667	     8.85769e-03	
      1026.861	     8.92709e-03	
      1026.965	     8.96042e-03	
      1027.069	     8.99337e-03	
      1027.277	     9.05847e-03	
      1027.693	     9.18102e-03	
      1027.985	     9.26349e-03	
      1028.526	     9.41309e-03	
      1028.796	     9.48704e-03	
      1029.067	     9.56103e-03	
      1029.338	     9.63520e-03	
      1029.881	     9.78374e-03	
      1030.965	     1.00851e-02	
      1033.082	     1.06921e-02	
      1033.135	     1.07074e-02	
      1033.187	     1.07227e-02	
      1033.230	     1.07354e-02	
      1033.291	     1.07534e-02	
      1033.499	     1.08149e-02	
      1033.915	     1.09389e-02	
      1034.747	     1.11908e-02	
      1036.265	     1.16640e-02	
      1037.783	     1.21554e-02	
      1039.172	     1.26211e-02	
      1039.258	     1.26505e-02	
      1039.301	     1.26652e-02	
      1039.344	     1.26799e-02	
      1039.504	     1.27348e-02	
      1039.516	     1.27389e-02	
      1039.860	     1.28575e-02	
      1040.549	     1.30979e-02	
      1041.925	     1.35909e-02	
      1044.347	     1.44996e-02	
      1046.768	     1.54637e-02	
      1049.029	     1.64169e-02	
      1049.189	     1.64864e-02	
      1049.349	     1.65561e-02	
      1049.670	     1.66967e-02	
      1050.310	     1.69813e-02	
      1051.591	     1.75637e-02	
      1053.952	     1.86860e-02	
      1054.152	     1.87841e-02	
      1054.352	     1.88826e-02	
      1054.752	     1.90812e-02	
      1054.952	     1.91812e-02	
      1055.553	     1.94840e-02	
      1057.153	     2.03131e-02	
      1059.355	     2.15062e-02	
      1061.556	     2.27604e-02	
      1063.156	     2.37145e-02	
      1063.757	     2.40817e-02	
      1064.357	     2.44540e-02	
      1065.558	     2.52146e-02	
      1066.558	     2.58649e-02	
      1067.959	     2.68013e-02	
      1069.359	     2.77686e-02	
      1069.960	     2.81944e-02	
      1072.161	     2.98070e-02	
      1074.362	     3.15039e-02	
      1076.563	     3.32893e-02	
      1078.163	     3.46455e-02	
      1078.687	     3.51001e-02	
      1078.764	     3.51670e-02	
      1078.980	     3.53564e-02	
      1079.364	     3.56957e-02	
      1080.565	     3.67720e-02	
      1080.712	     3.69052e-02	
      1082.442	     3.85144e-02	
      1084.173	     4.01879e-02	
      1085.905	     4.19277e-02	
      1087.637	     4.37360e-02	
      1089.318	     4.55609e-02	
      1089.367	     4.56153e-02	
      1089.418	     4.56718e-02	
      1089.518	     4.57834e-02	
      1089.718	     4.60064e-02	
      1090.119	     4.64563e-02	
      1090.669	     4.70812e-02	
      1090.919	     4.73677e-02	
      1092.520	     4.92401e-02	
      1094.370	     5.14894e-02	
      1096.221	     5.38328e-02	
      1096.771	     5.45478e-02	
      1098.072	     5.62732e-02	
      1099.372	     5.80485e-02	
      1099.573	     5.83252e-02	
      1101.974	     6.17430e-02	
      1104.374	     6.53429e-02	
      1106.775	     6.91339e-02	
      1108.976	     7.27847e-02	
      1109.176	     7.31253e-02	
      1109.376	     7.34674e-02	
      1109.777	     7.41601e-02	
      1109.977	     7.45085e-02	
      1110.577	     7.55635e-02	
      1112.177	     7.84437e-02	
      1114.378	     8.25683e-02	
      1116.579	     8.68905e-02	
      1118.180	     9.01628e-02	
      1118.684	     9.12165e-02	
      1118.780	     9.14185e-02	
      1119.380	     9.26905e-02	
      1120.076	     9.41862e-02	
      1121.469	     9.72439e-02	
      1123.778	     1.02514e-01	
      1124.254	     1.03630e-01	
      1124.730	     1.04754e-01	
      1125.682	     1.07035e-01	
      1125.790	     1.07297e-01	
      1127.075	     1.10452e-01	
      1127.587	     1.11734e-01	
      1129.384	     1.16338e-01	
      1131.692	     1.22510e-01	
      1132.463	     1.24635e-01	
      1134.001	     1.28979e-01	
      1135.540	     1.33461e-01	
      1137.846	     1.40441e-01	
      1138.617	     1.42844e-01	
      1139.387	     1.45282e-01	
      1140.927	     1.50268e-01	
      1143.628	     1.59371e-01	
      1143.948	     1.60480e-01	
      1144.008	     1.60689e-01	
      1144.388	     1.62016e-01	
      1145.149	     1.64702e-01	
      1146.669	     1.70182e-01	
      1149.390	     1.80370e-01	
      1149.830	     1.82059e-01	
      1152.111	     1.91040e-01	
      1154.391	     2.00354e-01	
      1156.672	     2.09999e-01	
      1158.513	     2.18005e-01	
      1158.953	     2.19949e-01	
      1159.393	     2.21912e-01	
      1159.673	     2.23168e-01	
      1160.273	     2.25872e-01	
      1162.034	     2.33938e-01	
      1164.394	     2.45078e-01	
      1166.755	     2.56614e-01	
      1168.835	     2.67179e-01	
      1169.115	     2.68615e-01	
      1169.395	     2.70054e-01	
      1169.956	     2.72945e-01	
      1171.076	     2.78817e-01	
      1172.236	     2.85050e-01	
      1173.317	     2.91010e-01	
      1174.397	     2.97148e-01	
      1176.557	     3.10230e-01	
      1178.038	     3.19773e-01	
      1178.718	     3.24357e-01	
      1179.398	     3.28994e-01	
      1180.580	     3.37247e-01	
      1180.758	     3.38510e-01	
      1180.936	     3.39779e-01	
      1181.293	     3.42342e-01	
      1181.690	     3.45217e-01	
      1182.005	     3.47517e-01	
      1183.429	     3.58044e-01	
      1185.168	     3.71267e-01	
      1187.894	     3.92715e-01	
      1188.647	     3.98794e-01	
      1189.400	     4.04958e-01	
      1190.907	     4.17559e-01	
      1193.437	     4.39622e-01	
      1193.919	     4.43954e-01	
      1194.402	     4.48327e-01	
      1195.186	     4.55518e-01	
      1195.366	     4.57183e-01	
      1197.294	     4.75285e-01	
      1199.403	     4.95759e-01	
      1201.511	     5.17175e-01	
      1202.835	     5.31262e-01	
      1203.620	     5.39829e-01	
      1204.404	     5.48597e-01	
      1205.972	     5.66596e-01	
      1208.813	     6.00594e-01	
      1209.109	     6.04226e-01	
      1209.405	     6.07892e-01	
      1209.669	     6.11172e-01	
      1209.997	     6.15259e-01	
      1210.325	     6.19359e-01	
      1210.981	     6.27587e-01	
      1211.894	     6.39041e-01	
      1212.293	     6.44026e-01	
      1212.691	     6.49022e-01	
      1213.102	     6.54180e-01	
      1213.283	     6.56464e-01	
      1213.489	     6.59072e-01	
      1213.875	     6.63998e-01	
      1214.171	     6.67793e-01	
      1214.467	     6.71607e-01	
      1214.615	     6.73520e-01	
      1214.763	     6.75439e-01	
      1214.837	     6.76401e-01	
      1214.911	     6.77365e-01	
      1214.948	     6.77846e-01	
      1214.985	     6.78330e-01	
      1215.004	     6.78578e-01	
      1215.022	     6.78810e-01	
      1215.040	     6.79046e-01	
      1215.059	     6.79294e-01	
      1215.077	     6.79530e-01	
      1215.095	     6.79765e-01	
      1215.114	     6.80013e-01	
      1215.132	     6.80249e-01	
      1215.169	     6.80733e-01	
      1215.243	     6.81700e-01	
      1215.391	     6.83642e-01	
      1215.637	     6.86878e-01	
      1215.687	     6.87538e-01	
      1215.737	     6.88197e-01	
      1215.795	     6.88964e-01	
      1215.837	     6.89520e-01	
      1216.037	     6.92171e-01	
      1216.064	     6.92530e-01	
      1216.279	     6.95392e-01	
      1216.763	     7.01869e-01	
      1217.462	     7.11326e-01	
      1218.315	     7.22956e-01	
      1218.861	     7.30373e-01	
      1218.985	     7.32038e-01	
      1219.407	     7.37665e-01	
      1219.829	     7.43238e-01	
      1220.104	     7.46816e-01	
      1220.673	     7.54171e-01	
      1222.361	     7.76071e-01	
      1224.619	     8.06516e-01	
      1226.876	     8.39383e-01	
      1228.858	     8.69769e-01	
      1229.134	     8.74126e-01	
      1229.409	     8.78515e-01	
