# Koester WD models
# teff = 5000 K (value for the effective temperature for the model. Temperatures are given in K)
# logg = 7.5 log(cm/s2) (value for Log(G) for the model.)
#
#   WAVELENGTH	#           FLUX	
#   (ANGSTROM)	#  (ERG/CM2/S/A)	
##############	################	
       899.230	     1.43718e-04	
       900.638	     1.51393e-04	
       902.048	     1.59450e-04	
       902.677	     1.63183e-04	
       903.456	     1.67907e-04	
       904.235	     1.72758e-04	
       905.793	     1.82857e-04	
       907.350	     1.93506e-04	
       908.573	     2.02276e-04	
       908.907	     2.04732e-04	
       909.241	     2.07216e-04	
       909.784	     2.11325e-04	
       909.908	     2.12268e-04	
       910.032	     2.13214e-04	
       910.279	     2.15120e-04	
       910.772	     2.18978e-04	
       911.485	     2.24665e-04	
       911.759	     2.26890e-04	
       911.881	     2.27878e-04	
       912.034	     2.29135e-04	
       912.582	     2.33686e-04	
       913.037	     2.37522e-04	
       913.241	     2.39264e-04	
       913.284	     2.39633e-04	
       913.478	     2.41303e-04	
       913.531	     2.41762e-04	
       913.755	     2.43698e-04	
       913.822	     2.44283e-04	
       914.080	     2.46547e-04	
       914.165	     2.47298e-04	
       914.499	     2.50266e-04	
       914.575	     2.50946e-04	
       915.071	     2.55419e-04	
       915.540	     2.59725e-04	
       915.609	     2.60354e-04	
       915.643	     2.60670e-04	
       915.677	     2.60986e-04	
       915.741	     2.61581e-04	
       915.813	     2.62253e-04	
       916.085	     2.64804e-04	
       916.429	     2.68064e-04	
       916.858	     2.72172e-04	
       917.118	     2.74696e-04	
       917.196	     2.75457e-04	
       917.378	     2.77242e-04	
       917.899	     2.82400e-04	
       917.952	     2.82931e-04	
       918.287	     2.86307e-04	
       918.602	     2.89506e-04	
       919.251	     2.96223e-04	
       920.215	     3.06460e-04	
       921.882	     3.24941e-04	
       921.999	     3.26276e-04	
       922.143	     3.27929e-04	
       922.405	     3.30945e-04	
       922.810	     3.35676e-04	
       923.621	     3.45098e-04	
       925.001	     3.62282e-04	
       925.242	     3.65408e-04	
       925.484	     3.68487e-04	
       925.564	     3.69514e-04	
       925.966	     3.74632e-04	
       926.369	     3.78879e-04	
       926.771	     3.83023e-04	
       926.969	     3.85216e-04	
       927.576	     3.92570e-04	
       928.182	     4.01009e-04	
       928.489	     4.05617e-04	
       928.789	     4.10748e-04	
       928.917	     4.13066e-04	
       928.980	     4.14203e-04	
       929.089	     4.16198e-04	
       929.261	     4.19330e-04	
       929.317	     4.20298e-04	
       929.543	     4.24021e-04	
       929.655	     4.25705e-04	
       929.769	     4.27382e-04	
       929.827	     4.28237e-04	
       929.883	     4.29066e-04	
       929.910	     4.29465e-04	
       929.939	     4.29892e-04	
       929.954	     4.30115e-04	
       929.968	     4.30323e-04	
       929.982	     4.30530e-04	
       929.996	     4.30737e-04	
       930.010	     4.30948e-04	
       930.024	     4.31155e-04	
       930.038	     4.31363e-04	
       930.052	     4.31570e-04	
       930.081	     4.32000e-04	
       930.137	     4.32836e-04	
       930.201	     4.33791e-04	
       930.247	     4.34479e-04	
       930.249	     4.34507e-04	
       930.251	     4.34539e-04	
       930.301	     4.35287e-04	
       930.326	     4.35645e-04	
       930.329	     4.35689e-04	
       930.402	     4.36779e-04	
       930.478	     4.37885e-04	
       930.630	     4.39933e-04	
       930.931	     4.43373e-04	
       931.229	     4.46568e-04	
       931.490	     4.49452e-04	
       931.534	     4.49983e-04	
       931.838	     4.53687e-04	
       931.968	     4.55361e-04	
       932.447	     4.62015e-04	
       932.925	     4.69313e-04	
       933.265	     4.74732e-04	
       933.403	     4.76969e-04	
       933.432	     4.77425e-04	
       933.542	     4.79228e-04	
       933.652	     4.81050e-04	
       933.872	     4.84751e-04	
       933.973	     4.86460e-04	
       934.073	     4.88166e-04	
       934.312	     4.92335e-04	
       934.316	     4.92404e-04	
       934.652	     4.98477e-04	
       934.773	     5.00786e-04	
       935.230	     5.09865e-04	
       935.687	     5.19755e-04	
       936.144	     5.30194e-04	
       936.372	     5.35183e-04	
       936.601	     5.39694e-04	
       936.714	     5.41790e-04	
       936.829	     5.43907e-04	
       936.887	     5.44978e-04	
       936.944	     5.46034e-04	
       936.973	     5.46571e-04	
       937.001	     5.47090e-04	
       937.015	     5.47350e-04	
       937.029	     5.47608e-04	
       937.043	     5.47869e-04	
       937.058	     5.48148e-04	
       937.072	     5.48406e-04	
       937.086	     5.48667e-04	
       937.101	     5.48946e-04	
       937.115	     5.49207e-04	
       937.143	     5.49728e-04	
       937.200	     5.50790e-04	
       937.314	     5.52923e-04	
       937.493	     5.56276e-04	
       937.542	     5.57183e-04	
       937.593	     5.58113e-04	
       937.694	     5.59854e-04	
       937.788	     5.61403e-04	
       937.894	     5.63021e-04	
       938.000	     5.64557e-04	
       938.212	     5.67482e-04	
       938.359	     5.69439e-04	
       938.556	     5.72109e-04	
       938.636	     5.73259e-04	
       938.914	     5.77362e-04	
       939.271	     5.83039e-04	
       939.986	     5.95954e-04	
       940.580	     6.07722e-04	
       940.660	     6.09362e-04	
       940.675	     6.09670e-04	
       940.700	     6.10185e-04	
       940.740	     6.11011e-04	
       940.787	     6.11995e-04	
       940.901	     6.14351e-04	
       941.221	     6.21058e-04	
       941.861	     6.34753e-04	
       943.048	     6.60608e-04	
       943.457	     6.69627e-04	
       944.382	     6.90299e-04	
       945.308	     7.11734e-04	
       946.233	     7.35001e-04	
       947.158	     7.61720e-04	
       947.621	     7.76457e-04	
       948.083	     7.91358e-04	
       948.314	     7.98282e-04	
       948.546	     8.04650e-04	
       948.661	     8.07719e-04	
       948.777	     8.10817e-04	
       948.835	     8.12369e-04	
       948.893	     8.13924e-04	
       948.922	     8.14703e-04	
       948.951	     8.15482e-04	
       948.966	     8.15887e-04	
       948.980	     8.16264e-04	
       948.994	     8.16641e-04	
       949.009	     8.17043e-04	
       949.023	     8.17420e-04	
       949.037	     8.17797e-04	
       949.052	     8.18203e-04	
       949.066	     8.18580e-04	
       949.095	     8.19365e-04	
       949.153	     8.20933e-04	
       949.230	     8.23019e-04	
       949.258	     8.23779e-04	
       949.269	     8.24077e-04	
       949.280	     8.24376e-04	
       949.330	     8.25736e-04	
       949.360	     8.26553e-04	
       949.430	     8.28460e-04	
       949.500	     8.30367e-04	
       949.640	     8.34115e-04	
       949.795	     8.38020e-04	
       949.879	     8.40021e-04	
       949.921	     8.40960e-04	
       949.963	     8.41912e-04	
       950.047	     8.43782e-04	
       950.131	     8.45582e-04	
       950.467	     8.52446e-04	
       950.888	     8.61214e-04	
       951.728	     8.80981e-04	
       952.400	     8.99284e-04	
       952.569	     9.04207e-04	
       952.738	     9.09249e-04	
       953.076	     9.19541e-04	
       953.753	     9.41149e-04	
       954.198	     9.55980e-04	
       955.106	     9.87553e-04	
       956.014	     1.02022e-03	
       956.370	     1.03339e-03	
       957.830	     1.08856e-03	
       958.148	     1.10080e-03	
       959.289	     1.14542e-03	
       960.430	     1.19143e-03	
       961.192	     1.22299e-03	
       962.712	     1.28756e-03	
       964.231	     1.35449e-03	
       965.750	     1.42444e-03	
       966.507	     1.46035e-03	
       966.767	     1.47287e-03	
       967.269	     1.49724e-03	
       968.032	     1.53482e-03	
       968.668	     1.56666e-03	
       968.979	     1.58238e-03	
       969.297	     1.59855e-03	
       969.927	     1.63046e-03	
       970.401	     1.65375e-03	
       970.638	     1.66441e-03	
       970.874	     1.67333e-03	
       970.992	     1.67665e-03	
       971.110	     1.67857e-03	
       971.230	     1.67802e-03	
       971.348	     1.67406e-03	
       971.535	     1.66361e-03	
       971.567	     1.66367e-03	
       971.584	     1.66419e-03	
       971.635	     1.66903e-03	
       971.644	     1.67055e-03	
       971.703	     1.68394e-03	
       971.732	     1.69106e-03	
       971.762	     1.69613e-03	
       971.778	     1.69753e-03	
       971.792	     1.69832e-03	
       971.806	     1.69907e-03	
       971.821	     1.69987e-03	
       971.827	     1.70019e-03	
       971.833	     1.70051e-03	
       971.836	     1.70067e-03	
       971.839	     1.70083e-03	
       971.851	     1.70146e-03	
       971.866	     1.70227e-03	
       971.880	     1.70301e-03	
       971.910	     1.70432e-03	
       971.969	     1.69925e-03	
       972.037	     1.69089e-03	
       972.087	     1.69063e-03	
       972.137	     1.69498e-03	
       972.150	     1.69656e-03	
       972.237	     1.71040e-03	
       972.324	     1.72555e-03	
       972.499	     1.74975e-03	
       972.548	     1.75538e-03	
       972.673	     1.76761e-03	
       972.798	     1.77828e-03	
       973.048	     1.79677e-03	
       973.351	     1.81688e-03	
       973.548	     1.82931e-03	
       973.746	     1.84152e-03	
       974.140	     1.86565e-03	
       974.217	     1.87034e-03	
       974.821	     1.90723e-03	
       974.928	     1.91379e-03	
       975.640	     1.95772e-03	
       977.063	     2.04780e-03	
       979.305	     2.19660e-03	
       981.547	     2.35510e-03	
       983.653	     2.51337e-03	
       983.788	     2.52384e-03	
       983.923	     2.53435e-03	
       984.194	     2.55550e-03	
       984.734	     2.59822e-03	
       985.011	     2.62037e-03	
       985.815	     2.68555e-03	
       986.618	     2.75221e-03	
       987.139	     2.79618e-03	
       988.225	     2.89010e-03	
       989.312	     2.98690e-03	
       991.486	     3.18944e-03	
       993.439	     3.38218e-03	
       993.659	     3.40454e-03	
       993.880	     3.42707e-03	
       994.320	     3.47250e-03	
       995.200	     3.56505e-03	
       995.477	     3.59452e-03	
       996.962	     3.75697e-03	
       997.574	     3.82589e-03	
       997.806	     3.85235e-03	
       998.447	     3.92611e-03	
       999.319	     4.02875e-03	
       999.435	     4.04260e-03	
      1001.064	     4.24162e-03	
      1002.694	     4.44966e-03	
      1004.323	     4.66706e-03	
      1005.836	     4.87767e-03	
      1005.952	     4.89419e-03	
      1007.581	     5.13141e-03	
      1009.326	     5.39726e-03	
      1011.071	     5.67548e-03	
      1011.303	     5.71346e-03	
      1012.816	     5.96676e-03	
      1014.329	     6.23078e-03	
      1015.378	     6.42032e-03	
      1015.842	     6.50608e-03	
      1017.355	     6.79175e-03	
      1017.620	     6.84355e-03	
      1019.046	     7.12510e-03	
      1019.332	     7.18262e-03	
      1021.044	     7.53436e-03	
      1022.044	     7.74293e-03	
      1022.543	     7.84704e-03	
      1023.043	     7.94839e-03	
      1023.542	     8.03849e-03	
      1023.791	     8.07622e-03	
      1024.041	     8.09918e-03	
      1024.291	     8.10368e-03	
      1024.540	     8.06874e-03	
      1024.667	     8.03437e-03	
      1024.791	     8.03117e-03	
      1024.852	     8.06312e-03	
      1024.915	     8.12290e-03	
      1024.947	     8.15473e-03	
      1024.978	     8.17599e-03	
      1024.993	     8.18178e-03	
      1025.009	     8.18592e-03	
      1025.025	     8.18960e-03	
      1025.040	     8.19305e-03	
      1025.056	     8.19670e-03	
      1025.072	     8.20037e-03	
      1025.087	     8.20380e-03	
      1025.103	     8.20747e-03	
      1025.134	     8.21435e-03	
      1025.196	     8.20364e-03	
      1025.271	     8.16321e-03	
      1025.320	     8.15404e-03	
      1025.371	     8.16349e-03	
      1025.471	     8.22001e-03	
      1025.521	     8.25595e-03	
      1025.571	     8.29415e-03	
      1025.621	     8.33154e-03	
      1025.721	     8.39694e-03	
      1025.772	     8.42585e-03	
      1025.921	     8.50175e-03	
      1026.070	     8.56693e-03	
      1026.369	     8.67975e-03	
      1026.667	     8.77387e-03	
      1026.861	     8.83306e-03	
      1026.965	     8.86199e-03	
      1027.069	     8.89064e-03	
      1027.277	     8.94757e-03	
      1027.693	     9.05878e-03	
      1027.985	     9.13569e-03	
      1028.526	     9.27879e-03	
      1028.796	     9.35023e-03	
      1029.067	     9.42198e-03	
      1029.338	     9.49405e-03	
      1029.881	     9.63894e-03	
      1030.965	     9.93343e-03	
      1033.082	     1.05296e-02	
      1033.135	     1.05447e-02	
      1033.187	     1.05598e-02	
      1033.230	     1.05722e-02	
      1033.291	     1.05899e-02	
      1033.499	     1.06505e-02	
      1033.915	     1.07726e-02	
      1034.747	     1.10206e-02	
      1036.265	     1.14865e-02	
      1037.783	     1.19703e-02	
      1039.172	     1.24292e-02	
      1039.258	     1.24582e-02	
      1039.301	     1.24727e-02	
      1039.344	     1.24872e-02	
      1039.504	     1.25413e-02	
      1039.516	     1.25454e-02	
      1039.860	     1.26624e-02	
      1040.549	     1.28996e-02	
      1041.925	     1.33863e-02	
      1044.347	     1.42834e-02	
      1046.768	     1.52355e-02	
      1049.029	     1.61768e-02	
      1049.189	     1.62455e-02	
      1049.349	     1.63144e-02	
      1049.670	     1.64531e-02	
      1050.310	     1.67339e-02	
      1051.591	     1.73086e-02	
      1053.952	     1.84161e-02	
      1054.152	     1.85129e-02	
      1054.352	     1.86102e-02	
      1054.752	     1.88061e-02	
      1054.952	     1.89048e-02	
      1055.553	     1.92037e-02	
      1057.153	     2.00221e-02	
      1059.355	     2.11999e-02	
      1061.556	     2.24395e-02	
      1063.156	     2.33825e-02	
      1063.757	     2.37454e-02	
      1064.357	     2.41134e-02	
      1065.558	     2.48653e-02	
      1066.558	     2.55082e-02	
      1067.959	     2.64340e-02	
      1069.359	     2.73905e-02	
      1069.960	     2.78110e-02	
      1072.161	     2.94037e-02	
      1074.362	     3.10799e-02	
      1076.563	     3.28435e-02	
      1078.163	     3.41834e-02	
      1078.687	     3.46326e-02	
      1078.764	     3.46986e-02	
      1078.980	     3.48861e-02	
      1079.364	     3.52213e-02	
      1080.565	     3.62860e-02	
      1080.712	     3.64180e-02	
      1082.442	     3.80108e-02	
      1084.173	     3.96670e-02	
      1085.905	     4.13895e-02	
      1087.637	     4.31802e-02	
      1089.318	     4.49882e-02	
      1089.367	     4.50420e-02	
      1089.418	     4.50979e-02	
      1089.518	     4.52081e-02	
      1089.718	     4.54290e-02	
      1090.119	     4.58739e-02	
      1090.669	     4.64921e-02	
      1090.919	     4.67755e-02	
      1092.520	     4.86281e-02	
      1094.370	     5.08539e-02	
      1096.221	     5.31727e-02	
      1096.771	     5.38805e-02	
      1098.072	     5.55883e-02	
      1099.372	     5.73451e-02	
      1099.573	     5.76196e-02	
      1101.974	     6.10078e-02	
      1104.374	     6.45776e-02	
      1106.775	     6.83378e-02	
      1108.976	     7.19594e-02	
      1109.176	     7.22975e-02	
      1109.376	     7.26368e-02	
      1109.777	     7.33216e-02	
      1109.977	     7.36663e-02	
      1110.577	     7.47096e-02	
      1112.177	     7.75574e-02	
      1114.378	     8.16359e-02	
      1116.579	     8.59100e-02	
      1118.180	     8.91458e-02	
      1118.684	     9.01879e-02	
      1118.780	     9.03877e-02	
      1119.380	     9.16453e-02	
      1120.076	     9.31243e-02	
      1121.469	     9.61481e-02	
      1123.778	     1.01360e-01	
      1124.254	     1.02465e-01	
      1124.730	     1.03580e-01	
      1125.682	     1.05842e-01	
      1125.790	     1.06102e-01	
      1127.075	     1.09232e-01	
      1127.587	     1.10504e-01	
      1129.384	     1.15069e-01	
      1131.692	     1.21190e-01	
      1132.463	     1.23298e-01	
      1134.001	     1.27606e-01	
      1135.540	     1.32051e-01	
      1137.846	     1.38978e-01	
      1138.617	     1.41364e-01	
      1139.387	     1.43786e-01	
      1140.927	     1.48741e-01	
      1143.628	     1.57796e-01	
      1143.948	     1.58900e-01	
      1144.008	     1.59108e-01	
      1144.388	     1.60430e-01	
      1145.149	     1.63104e-01	
      1146.669	     1.68566e-01	
      1149.390	     1.78732e-01	
      1149.830	     1.80421e-01	
      1152.111	     1.89396e-01	
      1154.391	     1.98718e-01	
      1156.672	     2.08392e-01	
      1158.513	     2.16431e-01	
      1158.953	     2.18382e-01	
      1159.393	     2.20354e-01	
      1159.673	     2.21609e-01	
      1160.273	     2.24312e-01	
      1162.034	     2.32383e-01	
      1164.394	     2.43519e-01	
      1166.755	     2.54987e-01	
      1168.835	     2.65335e-01	
      1169.115	     2.66755e-01	
      1169.395	     2.68177e-01	
      1169.956	     2.71034e-01	
      1171.076	     2.76781e-01	
      1172.236	     2.82851e-01	
      1173.317	     2.88648e-01	
      1174.397	     2.94671e-01	
      1176.557	     3.07498e-01	
      1178.038	     3.16936e-01	
      1178.718	     3.21441e-01	
      1179.398	     3.26016e-01	
      1180.580	     3.34193e-01	
      1180.758	     3.35447e-01	
      1180.936	     3.36706e-01	
      1181.293	     3.39242e-01	
      1181.690	     3.42085e-01	
      1182.005	     3.44347e-01	
      1183.429	     3.54730e-01	
      1185.168	     3.67802e-01	
      1187.894	     3.89020e-01	
      1188.647	     3.95058e-01	
      1189.400	     4.01169e-01	
      1190.907	     4.13660e-01	
      1193.437	     4.35481e-01	
      1193.919	     4.39763e-01	
      1194.402	     4.44080e-01	
      1195.186	     4.51183e-01	
      1195.366	     4.52826e-01	
      1197.294	     4.70739e-01	
      1199.403	     4.90981e-01	
      1201.511	     5.12108e-01	
      1202.835	     5.25991e-01	
      1203.620	     5.34448e-01	
      1204.404	     5.43024e-01	
      1205.972	     5.60614e-01	
      1208.813	     5.93670e-01	
      1209.109	     5.97192e-01	
      1209.405	     6.00738e-01	
      1209.669	     6.03927e-01	
      1209.997	     6.07873e-01	
      1210.325	     6.11844e-01	
      1210.981	     6.19811e-01	
      1211.894	     6.30961e-01	
      1212.293	     6.35846e-01	
      1212.691	     6.40762e-01	
      1213.102	     6.45852e-01	
      1213.283	     6.48111e-01	
      1213.489	     6.50687e-01	
      1213.875	     6.55550e-01	
      1214.171	     6.59301e-01	
      1214.467	     6.63068e-01	
      1214.615	     6.64959e-01	
      1214.763	     6.66856e-01	
      1214.837	     6.67805e-01	
      1214.911	     6.68757e-01	
      1214.948	     6.69231e-01	
      1214.985	     6.69709e-01	
      1215.004	     6.69954e-01	
      1215.022	     6.70187e-01	
      1215.040	     6.70419e-01	
      1215.059	     6.70661e-01	
      1215.077	     6.70893e-01	
      1215.095	     6.71126e-01	
      1215.114	     6.71371e-01	
      1215.132	     6.71603e-01	
      1215.169	     6.72081e-01	
      1215.243	     6.73039e-01	
      1215.391	     6.74955e-01	
      1215.637	     6.78154e-01	
      1215.687	     6.78804e-01	
      1215.737	     6.79457e-01	
      1215.795	     6.80214e-01	
      1215.837	     6.80764e-01	
      1216.037	     6.83381e-01	
      1216.064	     6.83736e-01	
      1216.279	     6.86564e-01	
      1216.763	     6.92963e-01	
      1217.462	     7.02306e-01	
      1218.315	     7.13836e-01	
      1218.861	     7.21272e-01	
      1218.985	     7.22962e-01	
      1219.407	     7.28683e-01	
      1219.829	     7.34382e-01	
      1220.104	     7.38073e-01	
      1220.673	     7.45685e-01	
      1222.361	     7.68176e-01	
      1224.619	     7.99268e-01	
      1226.876	     8.31935e-01	
      1228.858	     8.62267e-01	
      1229.134	     8.66602e-01	
      1229.409	     8.70966e-01	
      1229.740	     8.76278e-01	
      1229.959	     8.79819e-01	
      1230.178	     8.83372e-01	
