# Koester WD models
# teff = 5500 K (value for the effective temperature for the model. Temperatures are given in K)
# logg = 9 log(cm/s2) (value for Log(G) for the model.)
#
#   WAVELENGTH	#           FLUX	
#   (ANGSTROM)	#  (ERG/CM2/S/A)	
##############	################	
       899.230	     3.30964e-03	
       901.358	     3.55361e-03	
       902.738	     3.72053e-03	
       903.486	     3.81421e-03	
       904.235	     3.91006e-03	
       905.733	     4.10851e-03	
       907.232	     4.31627e-03	
       908.219	     4.45839e-03	
       908.450	     4.49238e-03	
       908.729	     4.53373e-03	
       909.241	     4.61022e-03	
       910.032	     4.73096e-03	
       911.193	     4.91351e-03	
       911.613	     4.98122e-03	
       912.034	     5.04980e-03	
       912.465	     5.12105e-03	
       912.875	     5.18953e-03	
       913.037	     5.21690e-03	
       913.241	     5.25155e-03	
       913.284	     5.25887e-03	
       913.478	     5.29208e-03	
       913.531	     5.30115e-03	
       913.755	     5.33961e-03	
       913.822	     5.35123e-03	
       914.080	     5.39613e-03	
       914.165	     5.41098e-03	
       914.499	     5.46980e-03	
       914.575	     5.48324e-03	
       915.071	     5.57168e-03	
       915.540	     5.65666e-03	
       915.609	     5.66910e-03	
       915.643	     5.67532e-03	
       915.677	     5.68154e-03	
       915.741	     5.69326e-03	
       915.813	     5.70651e-03	
       916.085	     5.75675e-03	
       916.429	     5.82090e-03	
       916.858	     5.90161e-03	
       917.118	     5.95115e-03	
       917.196	     5.96610e-03	
       917.378	     6.00110e-03	
       917.899	     6.10210e-03	
       917.952	     6.11250e-03	
       918.287	     6.17851e-03	
       918.602	     6.24099e-03	
       919.251	     6.37200e-03	
       920.215	     6.57105e-03	
       921.882	     6.92875e-03	
       921.999	     6.95461e-03	
       922.143	     6.98659e-03	
       922.405	     7.04474e-03	
       922.810	     7.13559e-03	
       923.621	     7.31894e-03	
       925.001	     7.64576e-03	
       925.242	     7.70582e-03	
       925.484	     7.76463e-03	
       925.564	     7.78424e-03	
       925.966	     7.88053e-03	
       926.164	     7.92514e-03	
       926.369	     7.97167e-03	
       927.173	     8.16142e-03	
       927.276	     8.18599e-03	
       928.182	     8.41029e-03	
       928.917	     8.60887e-03	
       928.980	     8.62750e-03	
       929.089	     8.66068e-03	
       929.261	     8.71647e-03	
       929.317	     8.73454e-03	
       929.543	     8.81166e-03	
       929.655	     8.84738e-03	
       929.769	     8.88021e-03	
       929.827	     8.89633e-03	
       929.883	     8.91188e-03	
       929.910	     8.91939e-03	
       929.939	     8.92746e-03	
       929.954	     8.93164e-03	
       929.968	     8.93554e-03	
       929.982	     8.93946e-03	
       929.996	     8.94336e-03	
       930.010	     8.94726e-03	
       930.024	     8.95118e-03	
       930.038	     8.95508e-03	
       930.052	     8.95897e-03	
       930.081	     8.96708e-03	
       930.137	     8.98276e-03	
       930.201	     9.00069e-03	
       930.247	     9.01357e-03	
       930.249	     9.01414e-03	
       930.251	     9.01471e-03	
       930.301	     9.02850e-03	
       930.326	     9.03497e-03	
       930.329	     9.03572e-03	
       930.402	     9.05410e-03	
       930.478	     9.07103e-03	
       930.630	     9.09931e-03	
       930.931	     9.15049e-03	
       931.229	     9.20581e-03	
       931.534	     9.26707e-03	
       931.838	     9.33395e-03	
       932.447	     9.43332e-03	
       932.707	     9.48752e-03	
       933.055	     9.56986e-03	
       933.265	     9.62314e-03	
       933.403	     9.65933e-03	
       933.432	     9.66703e-03	
       933.542	     9.69753e-03	
       933.652	     9.72848e-03	
       933.872	     9.79134e-03	
       933.973	     9.82093e-03	
       934.073	     9.85075e-03	
       934.312	     9.92398e-03	
       934.652	     1.00337e-02	
       934.941	     1.01347e-02	
       935.230	     1.02465e-02	
       935.473	     1.03480e-02	
       935.520	     1.03687e-02	
       935.809	     1.05118e-02	
       936.144	     1.07031e-02	
       936.358	     1.08309e-02	
       936.372	     1.08394e-02	
       936.479	     1.08998e-02	
       936.601	     1.09601e-02	
       936.714	     1.10061e-02	
       936.829	     1.10464e-02	
       936.887	     1.10661e-02	
       936.944	     1.10855e-02	
       936.973	     1.10954e-02	
       937.001	     1.11049e-02	
       937.015	     1.11097e-02	
       937.029	     1.11144e-02	
       937.043	     1.11192e-02	
       937.058	     1.11243e-02	
       937.072	     1.11291e-02	
       937.086	     1.11339e-02	
       937.101	     1.11390e-02	
       937.115	     1.11438e-02	
       937.143	     1.11534e-02	
       937.200	     1.11729e-02	
       937.314	     1.12120e-02	
       937.493	     1.12688e-02	
       937.542	     1.12811e-02	
       937.593	     1.12915e-02	
       937.694	     1.13058e-02	
       937.788	     1.13127e-02	
       937.894	     1.13179e-02	
       938.000	     1.13198e-02	
       938.212	     1.13240e-02	
       938.359	     1.13297e-02	
       938.556	     1.13429e-02	
       938.636	     1.13509e-02	
       938.914	     1.13905e-02	
       939.271	     1.14571e-02	
       939.628	     1.15394e-02	
       939.986	     1.16329e-02	
       940.580	     1.18095e-02	
       940.660	     1.18348e-02	
       940.675	     1.18396e-02	
       940.700	     1.18476e-02	
       940.740	     1.18604e-02	
       940.901	     1.19120e-02	
       941.221	     1.20195e-02	
       941.861	     1.22460e-02	
       943.048	     1.26954e-02	
       943.160	     1.27407e-02	
       943.457	     1.28623e-02	
       944.234	     1.31890e-02	
       944.382	     1.32527e-02	
       945.308	     1.36572e-02	
       945.770	     1.38739e-02	
       946.233	     1.41090e-02	
       946.696	     1.43673e-02	
       947.158	     1.46672e-02	
       947.621	     1.50178e-02	
       948.083	     1.54069e-02	
       948.314	     1.55909e-02	
       948.546	     1.57408e-02	
       948.661	     1.58000e-02	
       948.777	     1.58554e-02	
       948.835	     1.58829e-02	
       948.893	     1.59104e-02	
       948.922	     1.59242e-02	
       948.951	     1.59380e-02	
       948.966	     1.59451e-02	
       948.980	     1.59518e-02	
       948.994	     1.59585e-02	
       949.009	     1.59656e-02	
       949.023	     1.59723e-02	
       949.037	     1.59790e-02	
       949.052	     1.59861e-02	
       949.066	     1.59928e-02	
       949.095	     1.60066e-02	
       949.153	     1.60344e-02	
       949.230	     1.60713e-02	
       949.258	     1.60847e-02	
       949.269	     1.60899e-02	
       949.280	     1.60952e-02	
       949.330	     1.61192e-02	
       949.360	     1.61335e-02	
       949.430	     1.61656e-02	
       949.500	     1.61954e-02	
       949.640	     1.62421e-02	
       949.795	     1.62746e-02	
       949.879	     1.62848e-02	
       949.921	     1.62898e-02	
       949.963	     1.62950e-02	
       950.047	     1.63003e-02	
       950.131	     1.63055e-02	
       950.467	     1.63310e-02	
       950.888	     1.63905e-02	
       951.308	     1.64934e-02	
       951.728	     1.66390e-02	
       952.149	     1.68148e-02	
       952.400	     1.69344e-02	
       952.569	     1.70197e-02	
       952.738	     1.71105e-02	
       953.076	     1.72999e-02	
       953.753	     1.77017e-02	
       954.198	     1.79826e-02	
       954.430	     1.81352e-02	
       955.106	     1.85751e-02	
       956.014	     1.91856e-02	
       956.370	     1.94509e-02	
       956.922	     1.98700e-02	
       957.830	     2.05759e-02	
       958.148	     2.08264e-02	
       959.289	     2.17295e-02	
       960.430	     2.26568e-02	
       961.192	     2.33051e-02	
       962.712	     2.45686e-02	
       964.231	     2.58316e-02	
       966.507	     2.77976e-02	
       966.767	     2.80257e-02	
       967.269	     2.84677e-02	
       968.032	     2.91435e-02	
       968.668	     2.97132e-02	
       968.979	     2.99881e-02	
       969.297	     3.02626e-02	
       969.453	     3.03942e-02	
       969.927	     3.07631e-02	
       970.164	     3.09240e-02	
       970.400	     3.10442e-02	
       970.637	     3.10753e-02	
       970.756	     3.10545e-02	
       970.874	     3.09916e-02	
       970.992	     3.08365e-02	
       971.110	     3.06122e-02	
       971.230	     3.02914e-02	
       971.348	     2.99019e-02	
       971.466	     2.96103e-02	
       971.535	     2.96423e-02	
       971.567	     2.97254e-02	
       971.584	     2.97998e-02	
       971.635	     3.00992e-02	
       971.644	     3.01651e-02	
       971.703	     3.06317e-02	
       971.732	     3.08170e-02	
       971.762	     3.09209e-02	
       971.778	     3.09431e-02	
       971.792	     3.09558e-02	
       971.806	     3.09681e-02	
       971.821	     3.09813e-02	
       971.827	     3.09865e-02	
       971.833	     3.09918e-02	
       971.836	     3.09945e-02	
       971.839	     3.09971e-02	
       971.851	     3.10076e-02	
       971.866	     3.10208e-02	
       971.880	     3.10331e-02	
       971.910	     3.10555e-02	
       971.969	     3.08992e-02	
       972.037	     3.04836e-02	
       972.087	     3.02567e-02	
       972.137	     3.01593e-02	
       972.150	     3.01564e-02	
       972.237	     3.03259e-02	
       972.324	     3.07140e-02	
       972.499	     3.16044e-02	
       972.548	     3.18243e-02	
       972.673	     3.23151e-02	
       972.798	     3.27307e-02	
       972.923	     3.30461e-02	
       973.048	     3.33320e-02	
       973.298	     3.37907e-02	
       973.351	     3.38752e-02	
       973.548	     3.41896e-02	
       973.746	     3.44642e-02	
       974.140	     3.49559e-02	
       974.217	     3.50470e-02	
       974.534	     3.54149e-02	
       974.821	     3.57397e-02	
       974.928	     3.58594e-02	
       975.640	     3.66605e-02	
       977.063	     3.82740e-02	
       979.305	     4.08680e-02	
       981.547	     4.35783e-02	
       983.653	     4.62735e-02	
       983.788	     4.64506e-02	
       983.923	     4.66281e-02	
       984.194	     4.69822e-02	
       984.734	     4.76969e-02	
       985.011	     4.80657e-02	
       985.815	     4.91477e-02	
       986.618	     5.02529e-02	
       987.139	     5.09717e-02	
       988.225	     5.25161e-02	
       989.312	     5.41086e-02	
       991.486	     5.74280e-02	
       993.439	     6.05649e-02	
       993.659	     6.09277e-02	
       993.880	     6.12925e-02	
       994.320	     6.20282e-02	
       995.200	     6.35239e-02	
       995.477	     6.39999e-02	
       996.962	     6.66140e-02	
       997.574	     6.77202e-02	
       997.806	     6.81433e-02	
       998.447	     6.93236e-02	
       999.319	     7.09614e-02	
       999.435	     7.11816e-02	
      1001.064	     7.43439e-02	
      1002.694	     7.76347e-02	
      1004.323	     8.10565e-02	
      1005.836	     8.43562e-02	
      1005.952	     8.46144e-02	
      1007.581	     8.83124e-02	
      1009.326	     9.24348e-02	
      1011.071	     9.67256e-02	
      1011.303	     9.73096e-02	
      1012.816	     1.01194e-01	
      1014.329	     1.05217e-01	
      1015.378	     1.08092e-01	
      1015.842	     1.09390e-01	
      1017.355	     1.13700e-01	
      1017.620	     1.14482e-01	
      1019.046	     1.18693e-01	
      1019.332	     1.19546e-01	
      1020.046	     1.21681e-01	
      1021.044	     1.24669e-01	
      1021.544	     1.26154e-01	
      1022.043	     1.27580e-01	
      1022.543	     1.28834e-01	
      1022.993	     1.29643e-01	
      1023.043	     1.29710e-01	
      1023.093	     1.29774e-01	
      1023.193	     1.29863e-01	
      1023.393	     1.29940e-01	
      1023.545	     1.29814e-01	
      1023.593	     1.29731e-01	
      1023.669	     1.29534e-01	
      1023.793	     1.29277e-01	
      1023.917	     1.28740e-01	
      1023.991	     1.28384e-01	
      1024.041	     1.28074e-01	
      1024.091	     1.27712e-01	
      1024.191	     1.26971e-01	
      1024.242	     1.26584e-01	
      1024.290	     1.26159e-01	
      1024.391	     1.25171e-01	
      1024.415	     1.24929e-01	
      1024.540	     1.23631e-01	
      1024.666	     1.22947e-01	
      1024.791	     1.24035e-01	
      1024.852	     1.25429e-01	
      1024.915	     1.27157e-01	
      1024.947	     1.27850e-01	
      1024.978	     1.28222e-01	
      1024.993	     1.28302e-01	
      1025.009	     1.28358e-01	
      1025.025	     1.28410e-01	
      1025.040	     1.28459e-01	
      1025.056	     1.28511e-01	
      1025.072	     1.28562e-01	
      1025.087	     1.28611e-01	
      1025.103	     1.28663e-01	
      1025.134	     1.28762e-01	
      1025.196	     1.28483e-01	
      1025.271	     1.26983e-01	
      1025.320	     1.26043e-01	
      1025.371	     1.25462e-01	
      1025.471	     1.25488e-01	
      1025.521	     1.25991e-01	
      1025.571	     1.26659e-01	
      1025.621	     1.27480e-01	
      1025.721	     1.29214e-01	
      1025.772	     1.30089e-01	
      1025.921	     1.32432e-01	
      1026.070	     1.34556e-01	
      1026.219	     1.36410e-01	
      1026.369	     1.38065e-01	
      1026.518	     1.39426e-01	
      1026.563	     1.39833e-01	
      1026.816	     1.41799e-01	
      1027.069	     1.43397e-01	
      1027.322	     1.44827e-01	
      1027.828	     1.47348e-01	
      1028.335	     1.49534e-01	
      1028.615	     1.50681e-01	
      1028.796	     1.51418e-01	
      1028.841	     1.51600e-01	
      1029.067	     1.52505e-01	
      1029.338	     1.53605e-01	
      1029.881	     1.55791e-01	
      1030.965	     1.60191e-01	
      1033.082	     1.68926e-01	
      1033.135	     1.69145e-01	
      1033.187	     1.69364e-01	
      1033.230	     1.69545e-01	
      1033.291	     1.69802e-01	
      1033.499	     1.70681e-01	
      1033.915	     1.72450e-01	
      1034.747	     1.76037e-01	
      1036.265	     1.82758e-01	
      1039.172	     1.96264e-01	
      1039.258	     1.96677e-01	
      1039.301	     1.96884e-01	
      1039.344	     1.97091e-01	
      1039.504	     1.97859e-01	
      1039.516	     1.97917e-01	
      1039.860	     1.99579e-01	
      1040.549	     2.02944e-01	
      1041.925	     2.09835e-01	
      1044.347	     2.22469e-01	
      1046.768	     2.35790e-01	
      1049.029	     2.48880e-01	
      1049.189	     2.49831e-01	
      1049.349	     2.50785e-01	
      1049.670	     2.52708e-01	
      1050.310	     2.56592e-01	
      1051.591	     2.64524e-01	
      1053.952	     2.79736e-01	
      1054.152	     2.81061e-01	
      1054.352	     2.82392e-01	
      1054.752	     2.85071e-01	
      1054.952	     2.86419e-01	
      1055.553	     2.90498e-01	
      1057.153	     3.01635e-01	
      1059.355	     3.17587e-01	
      1061.556	     3.34278e-01	
      1063.156	     3.46910e-01	
      1063.757	     3.51758e-01	
      1064.357	     3.56665e-01	
      1065.558	     3.66662e-01	
      1066.558	     3.75182e-01	
      1067.959	     3.87415e-01	
      1069.359	     4.00010e-01	
      1069.960	     4.05536e-01	
      1072.161	     4.26399e-01	
      1074.362	     4.48233e-01	
      1076.563	     4.71079e-01	
      1078.163	     4.88351e-01	
      1078.687	     4.94125e-01	
      1078.764	     4.94977e-01	
      1078.980	     4.97383e-01	
      1079.364	     5.01684e-01	
      1080.565	     5.15303e-01	
      1080.712	     5.16984e-01	
      1082.442	     5.37269e-01	
      1084.173	     5.58270e-01	
      1085.905	     5.80023e-01	
      1087.637	     6.02539e-01	
      1089.318	     6.25171e-01	
      1089.367	     6.25843e-01	
      1089.418	     6.26544e-01	
      1089.518	     6.27920e-01	
      1089.718	     6.30681e-01	
      1090.119	     6.36235e-01	
      1090.669	     6.43948e-01	
      1090.919	     6.47479e-01	
      1092.520	     6.70507e-01	
      1094.370	     6.98056e-01	
      1096.221	     7.26625e-01	
      1096.771	     7.35321e-01	
      1098.072	     7.56247e-01	
      1099.372	     7.77708e-01	
      1099.573	     7.81044e-01	
      1101.974	     8.22130e-01	
      1104.374	     8.65163e-01	
      1106.775	     9.10217e-01	
      1108.976	     9.53348e-01	
      1109.176	     9.57360e-01	
      1109.376	     9.61384e-01	
      1109.777	     9.69552e-01	
      1109.977	     9.73661e-01	
      1110.577	     9.86077e-01	
      1112.177	     1.01990e+00	
      1114.378	     1.06811e+00	
      1116.579	     1.11838e+00	
      1118.180	     1.15627e+00	
      1118.684	     1.16844e+00	
      1118.780	     1.17077e+00	
      1119.380	     1.18545e+00	
      1120.076	     1.20267e+00	
      1121.469	     1.23780e+00	
      1123.778	     1.29810e+00	
      1124.254	     1.31082e+00	
      1124.730	     1.32360e+00	
      1125.682	     1.34949e+00	
      1125.790	     1.35246e+00	
      1127.075	     1.38816e+00	
      1127.587	     1.40263e+00	
      1127.845	     1.40998e+00	
      1129.384	     1.45447e+00	
      1129.769	     1.46580e+00	
      1131.692	     1.52358e+00	
      1133.616	     1.58335e+00	
      1135.540	     1.64512e+00	
      1137.463	     1.70893e+00	
      1139.387	     1.77513e+00	
      1142.080	     1.87139e+00	
      1143.234	     1.91394e+00	
      1144.004	     1.94276e+00	
      1144.388	     1.95726e+00	
      1146.697	     2.04607e+00	
      1146.889	     2.05358e+00	
      1149.390	     2.15306e+00	
      1151.891	     2.25444e+00	
      1154.391	     2.35978e+00	
      1159.393	     2.57325e+00	
      1164.394	     2.78664e+00	
      1169.395	     2.99310e+00	
      1171.896	     3.09474e+00	
      1173.146	     3.14810e+00	
      1174.397	     3.20571e+00	
      1175.647	     3.26776e+00	
      1176.897	     3.33521e+00	
      1177.860	     3.39160e+00	
      1178.148	     3.40894e+00	
      1179.398	     3.48773e+00	
      1180.936	     3.59128e+00	
      1182.475	     3.69970e+00	
      1182.858	     3.72719e+00	
      1184.013	     3.81151e+00	
      1185.168	     3.89677e+00	
      1185.558	     3.92564e+00	
      1187.479	     4.07075e+00	
      1189.400	     4.21972e+00	
      1192.085	     4.43621e+00	
      1193.243	     4.53332e+00	
      1194.034	     4.60077e+00	
      1194.402	     4.63247e+00	
      1196.718	     4.83557e+00	
      1196.902	     4.85191e+00	
      1199.403	     5.07886e+00	
      1201.903	     5.31887e+00	
      1204.404	     5.58057e+00	
      1206.904	     5.86240e+00	
      1208.485	     6.05020e+00	
      1209.405	     6.16267e+00	
      1210.325	     6.27653e+00	
      1211.639	     6.43913e+00	
      1212.165	     6.50241e+00	
      1212.691	     6.56417e+00	
      1213.613	     6.67054e+00	
      1213.744	     6.68575e+00	
      1213.807	     6.69307e+00	
      1213.875	     6.70095e+00	
      1214.137	     6.73149e+00	
      1214.171	     6.73545e+00	
      1214.467	     6.77013e+00	
      1214.615	     6.78751e+00	
      1214.763	     6.80494e+00	
      1214.837	     6.81367e+00	
      1214.911	     6.82241e+00	
      1214.948	     6.82678e+00	
      1214.985	     6.83117e+00	
      1215.004	     6.83340e+00	
      1215.022	     6.83554e+00	
      1215.040	     6.83768e+00	
      1215.059	     6.83991e+00	
      1215.077	     6.84204e+00	
      1215.095	     6.84418e+00	
      1215.114	     6.84644e+00	
      1215.132	     6.84858e+00	
      1215.169	     6.85298e+00	
      1215.243	     6.86174e+00	
      1215.391	     6.87933e+00	
      1215.637	     6.90868e+00	
      1215.687	     6.91468e+00	
      1215.737	     6.92065e+00	
      1215.795	     6.92759e+00	
      1215.837	     6.93262e+00	
      1216.037	     6.95665e+00	
      1216.064	     6.95988e+00	
      1216.279	     6.98580e+00	
      1216.763	     7.04442e+00	
      1217.462	     7.12975e+00	
      1218.315	     7.23176e+00	
      1218.861	     7.29324e+00	
      1218.985	     7.30662e+00	
      1219.407	     7.35111e+00	
      1219.829	     7.39317e+00	
      1220.104	     7.42032e+00	
      1220.673	     7.47476e+00	
      1222.361	     7.63699e+00	
      1224.619	     7.87547e+00	
      1226.876	     8.14354e+00	
      1228.858	     8.39971e+00	
