# Koester WD models
# teff = 5500 K (value for the effective temperature for the model. Temperatures are given in K)
# logg = 9.5 log(cm/s2) (value for Log(G) for the model.)
#
#   WAVELENGTH	#           FLUX	
#   (ANGSTROM)	#  (ERG/CM2/S/A)	
##############	################	
       899.230	     2.96985e-03	
       901.358	     3.18960e-03	
       902.738	     3.33995e-03	
       903.486	     3.42434e-03	
       904.235	     3.51073e-03	
       905.733	     3.68955e-03	
       907.232	     3.87682e-03	
       908.219	     4.00493e-03	
       908.450	     4.03556e-03	
       908.729	     4.07285e-03	
       909.241	     4.14184e-03	
       910.032	     4.25067e-03	
       911.193	     4.41532e-03	
       911.613	     4.47636e-03	
       912.034	     4.53822e-03	
       912.465	     4.60250e-03	
       912.875	     4.66426e-03	
       913.037	     4.68895e-03	
       913.241	     4.72021e-03	
       913.284	     4.72681e-03	
       913.478	     4.75675e-03	
       913.531	     4.76495e-03	
       913.755	     4.79963e-03	
       913.822	     4.81012e-03	
       914.080	     4.85062e-03	
       914.165	     4.86403e-03	
       914.499	     4.91706e-03	
       914.575	     4.92922e-03	
       915.071	     5.00899e-03	
       915.540	     5.08567e-03	
       915.609	     5.09689e-03	
       915.643	     5.10251e-03	
       915.677	     5.10814e-03	
       915.741	     5.11872e-03	
       915.813	     5.13066e-03	
       916.085	     5.17599e-03	
       916.429	     5.23386e-03	
       916.858	     5.30672e-03	
       917.118	     5.35142e-03	
       917.196	     5.36490e-03	
       917.378	     5.39650e-03	
       917.899	     5.48767e-03	
       917.952	     5.49703e-03	
       918.287	     5.55663e-03	
       918.602	     5.61302e-03	
       919.251	     5.73127e-03	
       920.215	     5.91097e-03	
       921.882	     6.23405e-03	
       921.999	     6.25736e-03	
       922.143	     6.28614e-03	
       922.405	     6.33867e-03	
       922.810	     6.42091e-03	
       923.621	     6.58811e-03	
       925.001	     6.88276e-03	
       925.242	     6.93576e-03	
       925.484	     6.98885e-03	
       925.564	     7.00654e-03	
       925.966	     7.09560e-03	
       926.164	     7.13886e-03	
       926.369	     7.18353e-03	
       927.173	     7.36301e-03	
       927.276	     7.38623e-03	
       928.182	     7.59483e-03	
       928.917	     7.77271e-03	
       928.980	     7.78876e-03	
       929.089	     7.81707e-03	
       929.261	     7.86256e-03	
       929.317	     7.87739e-03	
       929.543	     7.93887e-03	
       929.655	     7.96818e-03	
       929.769	     7.99686e-03	
       929.827	     8.01141e-03	
       929.883	     8.02548e-03	
       929.910	     8.03227e-03	
       929.939	     8.03956e-03	
       929.954	     8.04333e-03	
       929.968	     8.04684e-03	
       929.982	     8.05036e-03	
       929.996	     8.05391e-03	
       930.010	     8.05743e-03	
       930.024	     8.06098e-03	
       930.038	     8.06450e-03	
       930.052	     8.06802e-03	
       930.081	     8.07537e-03	
       930.137	     8.08951e-03	
       930.201	     8.10575e-03	
       930.247	     8.11740e-03	
       930.249	     8.11791e-03	
       930.251	     8.11841e-03	
       930.301	     8.13107e-03	
       930.326	     8.13713e-03	
       930.329	     8.13789e-03	
       930.402	     8.15598e-03	
       930.478	     8.17402e-03	
       930.630	     8.20741e-03	
       930.931	     8.27068e-03	
       931.229	     8.33556e-03	
       931.490	     8.39339e-03	
       931.534	     8.40345e-03	
       931.838	     8.47426e-03	
       932.447	     8.61836e-03	
       933.265	     8.82191e-03	
       933.403	     8.85712e-03	
       933.432	     8.86416e-03	
       933.542	     8.89200e-03	
       933.652	     8.92005e-03	
       933.872	     8.97672e-03	
       933.973	     9.00299e-03	
       934.073	     9.02925e-03	
       934.312	     9.09299e-03	
       934.316	     9.09409e-03	
       934.652	     9.18649e-03	
       934.773	     9.22105e-03	
       935.230	     9.35846e-03	
       935.687	     9.51350e-03	
       936.144	     9.69640e-03	
       936.372	     9.79489e-03	
       936.601	     9.88304e-03	
       936.714	     9.91999e-03	
       936.829	     9.95539e-03	
       936.887	     9.97321e-03	
       936.944	     9.99074e-03	
       936.973	     9.99966e-03	
       937.001	     1.00083e-02	
       937.015	     1.00126e-02	
       937.029	     1.00169e-02	
       937.043	     1.00212e-02	
       937.058	     1.00259e-02	
       937.072	     1.00302e-02	
       937.086	     1.00345e-02	
       937.101	     1.00391e-02	
       937.115	     1.00435e-02	
       937.143	     1.00522e-02	
       937.200	     1.00698e-02	
       937.314	     1.01052e-02	
       937.493	     1.01596e-02	
       937.542	     1.01734e-02	
       937.593	     1.01863e-02	
       937.694	     1.02080e-02	
       937.788	     1.02241e-02	
       937.894	     1.02405e-02	
       938.000	     1.02542e-02	
       938.212	     1.02803e-02	
       938.359	     1.02994e-02	
       938.556	     1.03291e-02	
       938.636	     1.03417e-02	
       938.914	     1.03921e-02	
       939.231	     1.04562e-02	
       939.271	     1.04647e-02	
       939.986	     1.06278e-02	
       940.740	     1.08205e-02	
       941.452	     1.09794e-02	
       942.250	     1.11880e-02	
       942.383	     1.12255e-02	
       943.048	     1.14264e-02	
       943.115	     1.14427e-02	
       943.845	     1.16695e-02	
       944.577	     1.19385e-02	
       945.308	     1.22379e-02	
       946.038	     1.25742e-02	
       946.382	     1.27502e-02	
       946.770	     1.29680e-02	
       947.158	     1.32187e-02	
       947.547	     1.34997e-02	
       947.787	     1.36889e-02	
       947.935	     1.38073e-02	
       948.083	     1.39228e-02	
       948.213	     1.40165e-02	
       948.314	     1.40835e-02	
       948.379	     1.41224e-02	
       948.546	     1.42074e-02	
       948.661	     1.42583e-02	
       948.777	     1.43081e-02	
       948.835	     1.43330e-02	
       948.893	     1.43580e-02	
       948.922	     1.43704e-02	
       948.951	     1.43829e-02	
       948.966	     1.43894e-02	
       948.980	     1.43954e-02	
       948.994	     1.44015e-02	
       949.009	     1.44079e-02	
       949.023	     1.44140e-02	
       949.037	     1.44200e-02	
       949.052	     1.44265e-02	
       949.066	     1.44325e-02	
       949.095	     1.44451e-02	
       949.153	     1.44702e-02	
       949.230	     1.45036e-02	
       949.258	     1.45158e-02	
       949.269	     1.45205e-02	
       949.280	     1.45253e-02	
       949.330	     1.45471e-02	
       949.360	     1.45602e-02	
       949.430	     1.45904e-02	
       949.500	     1.46192e-02	
       949.640	     1.46689e-02	
       949.795	     1.47056e-02	
       949.879	     1.47196e-02	
       949.921	     1.47239e-02	
       949.963	     1.47283e-02	
       950.047	     1.47320e-02	
       950.131	     1.47375e-02	
       950.467	     1.47420e-02	
       950.888	     1.47709e-02	
       951.308	     1.48360e-02	
       951.728	     1.49396e-02	
       952.149	     1.50758e-02	
       952.400	     1.51659e-02	
       952.569	     1.52318e-02	
       952.738	     1.52999e-02	
       953.076	     1.54438e-02	
       953.753	     1.57618e-02	
       954.198	     1.59850e-02	
       954.430	     1.61019e-02	
       955.106	     1.64633e-02	
       956.014	     1.69680e-02	
       956.370	     1.71845e-02	
       956.922	     1.75266e-02	
       957.830	     1.81044e-02	
       958.148	     1.83101e-02	
       959.289	     1.90680e-02	
       960.430	     1.98616e-02	
       961.192	     2.04277e-02	
       961.571	     2.07056e-02	
       962.712	     2.15528e-02	
       964.231	     2.27004e-02	
       966.507	     2.44561e-02	
       966.767	     2.46622e-02	
       967.269	     2.50637e-02	
       968.032	     2.56798e-02	
       968.668	     2.62112e-02	
       968.979	     2.64714e-02	
       969.297	     2.67359e-02	
       969.453	     2.68703e-02	
       969.927	     2.72640e-02	
       970.164	     2.74660e-02	
       970.400	     2.76376e-02	
       970.637	     2.77635e-02	
       970.756	     2.77934e-02	
       970.874	     2.77925e-02	
       970.992	     2.77532e-02	
       971.110	     2.76377e-02	
       971.230	     2.74228e-02	
       971.348	     2.70886e-02	
       971.466	     2.67393e-02	
       971.535	     2.66773e-02	
       971.567	     2.67208e-02	
       971.584	     2.67820e-02	
       971.635	     2.70513e-02	
       971.644	     2.71185e-02	
       971.703	     2.76340e-02	
       971.732	     2.78508e-02	
       971.762	     2.79693e-02	
       971.778	     2.79911e-02	
       971.792	     2.80028e-02	
       971.806	     2.80140e-02	
       971.821	     2.80259e-02	
       971.827	     2.80307e-02	
       971.833	     2.80355e-02	
       971.836	     2.80379e-02	
       971.839	     2.80403e-02	
       971.851	     2.80499e-02	
       971.866	     2.80618e-02	
       971.880	     2.80730e-02	
       971.910	     2.80925e-02	
       971.969	     2.78876e-02	
       972.037	     2.74028e-02	
       972.087	     2.71844e-02	
       972.137	     2.71371e-02	
       972.150	     2.71553e-02	
       972.199	     2.72715e-02	
       972.237	     2.74202e-02	
       972.324	     2.78381e-02	
       972.348	     2.79622e-02	
       972.499	     2.86274e-02	
       972.649	     2.91120e-02	
       972.798	     2.94630e-02	
       972.948	     2.97443e-02	
       973.097	     2.99794e-02	
       973.396	     3.03781e-02	
       973.645	     3.06629e-02	
       973.696	     3.07174e-02	
       973.746	     3.07715e-02	
       973.846	     3.08783e-02	
       974.046	     3.10865e-02	
       974.446	     3.14860e-02	
       974.853	     3.18853e-02	
       975.247	     3.22739e-02	
       975.640	     3.26609e-02	
       976.427	     3.34350e-02	
       976.695	     3.37008e-02	
       978.000	     3.50124e-02	
       979.305	     3.63438e-02	
       979.906	     3.69687e-02	
       981.915	     3.91094e-02	
       983.923	     4.13308e-02	
       985.245	     4.27703e-02	
       985.932	     4.35450e-02	
       986.618	     4.43382e-02	
       986.670	     4.43923e-02	
       987.991	     4.59040e-02	
       989.312	     4.75656e-02	
       990.633	     4.93029e-02	
       992.671	     5.20917e-02	
       993.275	     5.29437e-02	
       993.880	     5.38083e-02	
       995.088	     5.55704e-02	
       996.565	     5.77953e-02	
       997.506	     5.92548e-02	
       997.574	     5.93616e-02	
       997.806	     5.97280e-02	
       998.447	     6.07477e-02	
       999.319	     6.21586e-02	
       999.435	     6.23440e-02	
      1001.064	     6.50124e-02	
      1002.694	     6.78097e-02	
      1004.323	     7.07392e-02	
      1005.836	     7.35349e-02	
      1005.952	     7.37574e-02	
      1007.581	     7.69612e-02	
      1009.326	     8.05479e-02	
      1011.071	     8.42993e-02	
      1011.303	     8.48104e-02	
      1012.816	     8.82128e-02	
      1014.329	     9.17417e-02	
      1015.378	     9.42651e-02	
      1015.842	     9.54042e-02	
      1017.355	     9.92036e-02	
      1017.620	     9.98873e-02	
      1019.046	     1.03624e-01	
      1019.332	     1.04389e-01	
      1021.044	     1.09083e-01	
      1022.044	     1.11890e-01	
      1022.543	     1.13280e-01	
      1023.043	     1.14730e-01	
      1023.292	     1.15405e-01	
      1023.542	     1.15920e-01	
      1023.791	     1.16224e-01	
      1023.991	     1.16127e-01	
      1024.041	     1.16038e-01	
      1024.091	     1.15917e-01	
      1024.191	     1.15569e-01	
      1024.242	     1.15304e-01	
      1024.391	     1.14259e-01	
      1024.540	     1.12660e-01	
      1024.588	     1.12165e-01	
      1024.690	     1.11446e-01	
      1024.791	     1.12035e-01	
      1024.852	     1.13411e-01	
      1024.869	     1.13909e-01	
      1024.892	     1.14646e-01	
      1024.915	     1.15346e-01	
      1024.947	     1.16164e-01	
      1024.978	     1.16586e-01	
      1024.993	     1.16667e-01	
      1025.009	     1.16719e-01	
      1025.025	     1.16766e-01	
      1025.040	     1.16811e-01	
      1025.056	     1.16858e-01	
      1025.072	     1.16905e-01	
      1025.087	     1.16950e-01	
      1025.103	     1.16997e-01	
      1025.134	     1.17087e-01	
      1025.196	     1.16691e-01	
      1025.271	     1.14866e-01	
      1025.320	     1.13861e-01	
      1025.371	     1.13399e-01	
      1025.471	     1.13876e-01	
      1025.521	     1.14560e-01	
      1025.571	     1.15365e-01	
      1025.621	     1.16253e-01	
      1025.721	     1.17984e-01	
      1025.772	     1.18726e-01	
      1025.921	     1.20603e-01	
      1026.070	     1.22032e-01	
      1026.219	     1.23168e-01	
      1026.369	     1.24090e-01	
      1026.518	     1.24859e-01	
      1026.667	     1.25499e-01	
      1026.861	     1.26284e-01	
      1026.965	     1.26661e-01	
      1027.069	     1.27014e-01	
      1027.277	     1.27679e-01	
      1027.693	     1.29020e-01	
      1027.985	     1.29990e-01	
      1028.526	     1.31804e-01	
      1028.796	     1.32701e-01	
      1029.067	     1.33601e-01	
      1029.338	     1.34504e-01	
      1029.881	     1.36328e-01	
      1030.965	     1.40052e-01	
      1033.082	     1.47622e-01	
      1033.135	     1.47813e-01	
      1033.187	     1.48004e-01	
      1033.230	     1.48162e-01	
      1033.291	     1.48387e-01	
      1033.499	     1.49156e-01	
      1033.915	     1.50704e-01	
      1034.747	     1.53846e-01	
      1036.265	     1.59731e-01	
      1037.783	     1.65823e-01	
      1039.172	     1.71584e-01	
      1039.258	     1.71947e-01	
      1039.301	     1.72128e-01	
      1039.344	     1.72310e-01	
      1039.504	     1.72991e-01	
      1039.516	     1.73042e-01	
      1039.860	     1.74513e-01	
      1040.549	     1.77489e-01	
      1041.925	     1.83582e-01	
      1044.347	     1.94766e-01	
      1046.768	     2.06572e-01	
      1049.029	     2.18186e-01	
      1049.189	     2.19031e-01	
      1049.349	     2.19878e-01	
      1049.670	     2.21578e-01	
      1050.310	     2.25014e-01	
      1051.591	     2.32034e-01	
      1053.952	     2.45504e-01	
      1054.152	     2.46678e-01	
      1054.352	     2.47857e-01	
      1054.752	     2.50230e-01	
      1054.952	     2.51424e-01	
      1055.553	     2.55039e-01	
      1057.153	     2.64912e-01	
      1059.355	     2.79060e-01	
      1061.556	     2.93913e-01	
      1063.156	     3.05157e-01	
      1063.757	     3.09474e-01	
      1064.357	     3.13845e-01	
      1065.558	     3.22758e-01	
      1066.558	     3.30360e-01	
      1067.959	     3.41281e-01	
      1069.359	     3.52528e-01	
      1069.960	     3.57438e-01	
      1072.161	     3.75986e-01	
      1074.362	     3.95404e-01	
      1076.563	     4.15721e-01	
      1078.163	     4.31086e-01	
      1078.687	     4.36226e-01	
      1078.764	     4.36980e-01	
      1078.980	     4.39122e-01	
      1079.364	     4.42949e-01	
      1080.565	     4.55119e-01	
      1080.712	     4.56624e-01	
      1082.442	     4.74761e-01	
      1084.173	     4.93547e-01	
      1085.905	     5.13006e-01	
      1087.637	     5.33160e-01	
      1089.318	     5.53429e-01	
      1089.367	     5.54029e-01	
      1089.418	     5.54654e-01	
      1089.518	     5.55883e-01	
      1089.718	     5.58349e-01	
      1090.119	     5.63306e-01	
      1090.669	     5.70193e-01	
      1090.919	     5.73347e-01	
      1092.520	     5.93915e-01	
      1094.370	     6.18529e-01	
      1096.221	     6.44067e-01	
      1096.771	     6.51840e-01	
      1098.072	     6.70560e-01	
      1099.372	     6.89771e-01	
      1099.573	     6.92775e-01	
      1101.974	     7.29745e-01	
      1104.374	     7.68493e-01	
      1106.775	     8.09101e-01	
      1108.976	     8.48026e-01	
      1109.176	     8.51645e-01	
      1109.376	     8.55273e-01	
      1109.777	     8.62571e-01	
      1109.977	     8.66241e-01	
      1110.577	     8.77334e-01	
      1112.177	     9.07546e-01	
      1114.378	     9.50624e-01	
      1116.579	     9.95546e-01	
      1118.180	     1.02942e+00	
      1118.684	     1.04030e+00	
      1118.780	     1.04238e+00	
      1119.380	     1.05550e+00	
      1120.076	     1.07090e+00	
      1121.469	     1.10231e+00	
      1123.778	     1.15623e+00	
      1124.254	     1.16767e+00	
      1124.730	     1.17921e+00	
      1125.682	     1.20259e+00	
      1125.790	     1.20526e+00	
      1127.075	     1.23750e+00	
      1127.587	     1.25057e+00	
      1127.845	     1.25721e+00	
      1129.384	     1.29742e+00	
      1129.769	     1.30766e+00	
      1131.692	     1.35995e+00	
      1133.616	     1.41413e+00	
      1135.540	     1.47028e+00	
      1137.463	     1.52846e+00	
      1139.387	     1.58873e+00	
      1141.310	     1.65110e+00	
      1142.080	     1.67660e+00	
      1143.234	     1.71550e+00	
      1144.004	     1.74188e+00	
      1144.388	     1.75518e+00	
      1146.697	     1.83674e+00	
      1149.390	     1.93582e+00	
      1149.774	     1.95027e+00	
      1152.083	     2.03892e+00	
      1154.391	     2.12997e+00	
      1158.625	     2.30111e+00	
      1159.001	     2.31639e+00	
      1159.009	     2.31672e+00	
      1159.393	     2.33238e+00	
      1160.161	     2.36376e+00	
      1161.697	     2.42594e+00	
      1164.394	     2.53454e+00	
      1169.395	     2.73046e+00	
      1171.896	     2.82599e+00	
      1173.146	     2.87578e+00	
      1174.397	     2.92898e+00	
      1175.647	     2.98730e+00	
      1176.897	     3.05215e+00	
      1177.860	     3.10683e+00	
      1178.148	     3.12367e+00	
      1179.398	     3.19999e+00	
      1180.936	     3.29892e+00	
      1182.475	     3.40175e+00	
      1182.858	     3.42814e+00	
      1184.013	     3.50775e+00	
      1185.168	     3.58751e+00	
      1185.558	     3.61456e+00	
      1187.479	     3.75034e+00	
      1189.400	     3.88948e+00	
      1192.085	     4.09174e+00	
      1193.243	     4.18262e+00	
      1194.034	     4.24574e+00	
      1194.402	     4.27533e+00	
      1196.718	     4.46511e+00	
      1196.902	     4.48035e+00	
      1199.403	     4.69203e+00	
      1201.903	     4.91675e+00	
      1204.404	     5.16126e+00	
      1206.904	     5.42575e+00	
      1208.485	     5.59835e+00	
      1209.405	     5.70048e+00	
      1210.325	     5.80252e+00	
      1211.639	     5.94590e+00	
      1212.165	     6.00201e+00	
      1212.691	     6.05771e+00	
      1213.613	     6.15586e+00	
      1213.744	     6.16993e+00	
      1213.807	     6.17672e+00	
      1213.875	     6.18404e+00	
      1214.137	     6.21231e+00	
      1214.171	     6.21599e+00	
      1214.467	     6.24809e+00	
      1214.615	     6.26421e+00	
      1214.763	     6.28036e+00	
      1214.837	     6.28846e+00	
      1214.911	     6.29654e+00	
      1214.948	     6.30059e+00	
      1214.985	     6.30464e+00	
      1215.004	     6.30675e+00	
      1215.022	     6.30870e+00	
      1215.040	     6.31067e+00	
      1215.059	     6.31278e+00	
      1215.077	     6.31473e+00	
      1215.095	     6.31671e+00	
      1215.114	     6.31881e+00	
      1215.132	     6.32079e+00	
      1215.169	     6.32484e+00	
      1215.243	     6.33298e+00	
      1215.391	     6.34928e+00	
      1215.637	     6.37649e+00	
      1215.687	     6.38202e+00	
      1215.737	     6.38755e+00	
      1215.795	     6.39399e+00	
      1215.837	     6.39867e+00	
      1216.037	     6.42091e+00	
      1216.064	     6.42393e+00	
      1216.279	     6.44793e+00	
      1216.763	     6.50225e+00	
      1217.462	     6.58145e+00	
      1218.315	     6.67852e+00	
      1218.861	     6.73966e+00	
      1218.985	     6.75301e+00	
      1219.407	     6.79806e+00	
      1219.829	     6.84079e+00	
      1220.104	     6.86806e+00	
      1220.673	     6.92203e+00	
      1222.361	     7.07414e+00	
      1224.619	     7.28664e+00	
      1226.876	     7.52374e+00	
      1228.858	     7.75430e+00	
      1229.134	     7.78751e+00	
      1229.409	     7.82090e+00	
      1229.740	     7.86202e+00	
      1229.959	     7.88914e+00	
      1230.178	     7.91637e+00	
