# Koester WD models
# teff = 6250 K (value for the effective temperature for the model. Temperatures are given in K)
# logg = 9 log(cm/s2) (value for Log(G) for the model.)
#
#   WAVELENGTH	#           FLUX	
#   (ANGSTROM)	#  (ERG/CM2/S/A)	
##############	################	
       899.230	     1.30863e-01	
       901.337	     1.39213e-01	
       902.653	     1.44675e-01	
       903.444	     1.48048e-01	
       904.235	     1.51494e-01	
       905.817	     1.58607e-01	
       907.398	     1.66024e-01	
       908.718	     1.72458e-01	
       908.979	     1.73759e-01	
       909.241	     1.75069e-01	
       909.495	     1.76353e-01	
       909.763	     1.77715e-01	
       910.032	     1.79087e-01	
       910.568	     1.81860e-01	
       911.247	     1.85427e-01	
       911.640	     1.87523e-01	
       912.034	     1.89640e-01	
       912.357	     1.91396e-01	
       912.821	     1.93941e-01	
       913.037	     1.95139e-01	
       913.241	     1.96276e-01	
       913.284	     1.96517e-01	
       913.478	     1.97605e-01	
       913.531	     1.97903e-01	
       913.755	     1.99163e-01	
       913.822	     1.99543e-01	
       914.080	     2.01012e-01	
       914.165	     2.01498e-01	
       914.499	     2.03418e-01	
       914.575	     2.03858e-01	
       915.071	     2.06741e-01	
       915.540	     2.09507e-01	
       915.609	     2.09911e-01	
       915.643	     2.10113e-01	
       915.677	     2.10315e-01	
       915.741	     2.10697e-01	
       915.813	     2.11126e-01	
       916.085	     2.12759e-01	
       916.429	     2.14837e-01	
       916.858	     2.17466e-01	
       917.118	     2.19064e-01	
       917.196	     2.19537e-01	
       917.378	     2.20664e-01	
       917.899	     2.24014e-01	
       917.952	     2.24356e-01	
       918.602	     2.28388e-01	
       919.251	     2.33003e-01	
       919.587	     2.35276e-01	
       919.901	     2.37069e-01	
       920.215	     2.38956e-01	
       920.530	     2.41340e-01	
       920.844	     2.44146e-01	
       921.158	     2.46644e-01	
       921.473	     2.48946e-01	
       921.787	     2.50907e-01	
       921.798	     2.50963e-01	
       922.101	     2.52193e-01	
       922.405	     2.54010e-01	
       922.606	     2.55482e-01	
       922.708	     2.56526e-01	
       922.810	     2.57734e-01	
       923.014	     2.60134e-01	
       923.423	     2.64325e-01	
       923.831	     2.68000e-01	
       924.239	     2.71234e-01	
       924.444	     2.72620e-01	
       924.648	     2.73718e-01	
       924.852	     2.74419e-01	
       925.056	     2.74642e-01	
       925.260	     2.75036e-01	
       925.408	     2.76072e-01	
       925.446	     2.76363e-01	
       925.465	     2.76508e-01	
       925.484	     2.76654e-01	
       925.560	     2.77236e-01	
       925.712	     2.78504e-01	
       925.864	     2.80552e-01	
       926.016	     2.82970e-01	
       926.176	     2.85367e-01	
       926.273	     2.86707e-01	
       926.321	     2.87343e-01	
       926.369	     2.87951e-01	
       926.561	     2.90311e-01	
       926.945	     2.94518e-01	
       927.245	     2.97514e-01	
       927.276	     2.97801e-01	
       927.330	     2.98313e-01	
       927.714	     3.01782e-01	
       927.729	     3.01912e-01	
       928.182	     3.05619e-01	
       928.636	     3.08803e-01	
       928.917	     3.10253e-01	
       928.980	     3.10477e-01	
       929.089	     3.10839e-01	
       929.261	     3.11092e-01	
       929.317	     3.11125e-01	
       929.543	     3.10966e-01	
       929.655	     3.10960e-01	
       929.769	     3.11343e-01	
       929.827	     3.11748e-01	
       929.883	     3.12217e-01	
       929.910	     3.12448e-01	
       929.939	     3.12696e-01	
       929.954	     3.12824e-01	
       929.968	     3.12944e-01	
       929.982	     3.13064e-01	
       929.996	     3.13184e-01	
       930.010	     3.13304e-01	
       930.024	     3.13424e-01	
       930.038	     3.13544e-01	
       930.052	     3.13664e-01	
       930.081	     3.13914e-01	
       930.137	     3.14395e-01	
       930.201	     3.14960e-01	
       930.247	     3.15428e-01	
       930.249	     3.15454e-01	
       930.251	     3.15476e-01	
       930.301	     3.16098e-01	
       930.326	     3.16449e-01	
       930.329	     3.16493e-01	
       930.402	     3.17668e-01	
       930.478	     3.19026e-01	
       930.630	     3.21847e-01	
       930.931	     3.27015e-01	
       931.229	     3.31391e-01	
       931.232	     3.31432e-01	
       931.490	     3.34812e-01	
       931.534	     3.35368e-01	
       931.838	     3.39003e-01	
       932.447	     3.45679e-01	
       933.265	     3.54045e-01	
       933.403	     3.55412e-01	
       933.432	     3.55688e-01	
       933.542	     3.56769e-01	
       933.652	     3.57840e-01	
       933.872	     3.59964e-01	
       933.973	     3.60928e-01	
       934.073	     3.61871e-01	
       934.312	     3.64076e-01	
       934.316	     3.64114e-01	
       934.652	     3.67086e-01	
       934.773	     3.68122e-01	
       935.230	     3.71654e-01	
       935.687	     3.74424e-01	
       936.144	     3.76102e-01	
       936.372	     3.76250e-01	
       936.601	     3.76196e-01	
       936.714	     3.76360e-01	
       936.829	     3.77007e-01	
       936.887	     3.77538e-01	
       936.944	     3.78113e-01	
       936.973	     3.78408e-01	
       937.001	     3.78694e-01	
       937.015	     3.78838e-01	
       937.029	     3.78980e-01	
       937.043	     3.79124e-01	
       937.058	     3.79275e-01	
       937.072	     3.79420e-01	
       937.086	     3.79561e-01	
       937.101	     3.79715e-01	
       937.115	     3.79859e-01	
       937.143	     3.80145e-01	
       937.200	     3.80730e-01	
       937.314	     3.81958e-01	
       937.493	     3.84836e-01	
       937.542	     3.85838e-01	
       937.593	     3.86893e-01	
       937.694	     3.89055e-01	
       937.788	     3.91034e-01	
       937.894	     3.93227e-01	
       938.000	     3.95369e-01	
       938.212	     3.99296e-01	
       938.359	     4.01869e-01	
       938.556	     4.05162e-01	
       938.636	     4.06466e-01	
       938.914	     4.10820e-01	
       939.231	     4.15582e-01	
       939.271	     4.16167e-01	
       939.986	     4.26396e-01	
       940.740	     4.37024e-01	
       941.452	     4.47988e-01	
       942.250	     4.59216e-01	
       942.383	     4.61010e-01	
       943.048	     4.69634e-01	
       943.115	     4.70460e-01	
       943.845	     4.79219e-01	
       944.577	     4.87248e-01	
       945.308	     4.94468e-01	
       946.038	     5.01002e-01	
       946.382	     5.03946e-01	
       946.770	     5.07179e-01	
       947.158	     5.10213e-01	
       947.787	     5.14194e-01	
       947.935	     5.14863e-01	
       948.083	     5.15271e-01	
       948.213	     5.15491e-01	
       948.314	     5.15620e-01	
       948.379	     5.15623e-01	
       948.546	     5.15868e-01	
       948.661	     5.16434e-01	
       948.777	     5.17593e-01	
       948.835	     5.18347e-01	
       948.893	     5.19132e-01	
       948.922	     5.19528e-01	
       948.951	     5.19924e-01	
       948.966	     5.20128e-01	
       948.980	     5.20317e-01	
       948.994	     5.20508e-01	
       949.009	     5.20713e-01	
       949.023	     5.20904e-01	
       949.037	     5.21096e-01	
       949.052	     5.21300e-01	
       949.066	     5.21492e-01	
       949.095	     5.21888e-01	
       949.153	     5.22679e-01	
       949.230	     5.23738e-01	
       949.258	     5.24137e-01	
       949.269	     5.24300e-01	
       949.280	     5.24467e-01	
       949.330	     5.25287e-01	
       949.360	     5.25824e-01	
       949.430	     5.27282e-01	
       949.500	     5.28912e-01	
       949.640	     5.32588e-01	
       949.795	     5.36763e-01	
       949.879	     5.39034e-01	
       949.921	     5.40134e-01	
       949.963	     5.41234e-01	
       950.047	     5.43417e-01	
       950.131	     5.45494e-01	
       950.467	     5.53341e-01	
       950.718	     5.58877e-01	
       950.888	     5.62534e-01	
       951.728	     5.80378e-01	
       952.738	     6.03261e-01	
       953.502	     6.21793e-01	
       953.748	     6.27964e-01	
       954.758	     6.53699e-01	
       955.385	     6.70139e-01	
       956.014	     6.86752e-01	
       956.643	     7.06133e-01	
       957.270	     7.24901e-01	
       957.764	     7.39421e-01	
       957.899	     7.43361e-01	
       958.148	     7.50668e-01	
       958.526	     7.61755e-01	
       959.289	     7.84104e-01	
       960.430	     8.17194e-01	
       961.192	     8.39641e-01	
       962.712	     8.84650e-01	
       964.231	     9.30200e-01	
       965.750	     9.79853e-01	
       966.507	     1.00444e+00	
       967.269	     1.02817e+00	
       967.651	     1.03930e+00	
       968.032	     1.04961e+00	
       968.292	     1.05586e+00	
       968.413	     1.05853e+00	
       968.795	     1.06563e+00	
       969.046	     1.06881e+00	
       969.297	     1.07031e+00	
       969.548	     1.06975e+00	
       969.672	     1.06827e+00	
       969.799	     1.06581e+00	
       969.927	     1.06228e+00	
       970.054	     1.05763e+00	
       970.181	     1.05138e+00	
       970.308	     1.04362e+00	
       970.435	     1.03425e+00	
       970.504	     1.02856e+00	
       970.562	     1.02343e+00	
       970.689	     1.01113e+00	
       970.874	     9.91942e-01	
       971.142	     9.66555e-01	
       971.245	     9.58996e-01	
       971.317	     9.54950e-01	
       971.348	     9.53451e-01	
       971.451	     9.48924e-01	
       971.467	     9.48195e-01	
       971.585	     9.41576e-01	
       971.644	     9.36748e-01	
       971.703	     9.31740e-01	
       971.732	     9.30160e-01	
       971.762	     9.29911e-01	
       971.778	     9.30207e-01	
       971.792	     9.30527e-01	
       971.806	     9.30851e-01	
       971.821	     9.31199e-01	
       971.827	     9.31338e-01	
       971.833	     9.31476e-01	
       971.836	     9.31545e-01	
       971.839	     9.31614e-01	
       971.851	     9.31894e-01	
       971.866	     9.32239e-01	
       971.880	     9.32563e-01	
       971.910	     9.33289e-01	
       971.969	     9.37326e-01	
       972.037	     9.46289e-01	
       972.087	     9.52823e-01	
       972.137	     9.58465e-01	
       972.150	     9.59810e-01	
       972.237	     9.68261e-01	
       972.324	     9.76297e-01	
       972.499	     9.95137e-01	
       972.548	     1.00133e+00	
       972.673	     1.01857e+00	
       972.798	     1.03706e+00	
       973.048	     1.07468e+00	
       973.298	     1.10966e+00	
       973.351	     1.11664e+00	
       973.548	     1.14097e+00	
       973.746	     1.16306e+00	
       973.943	     1.18310e+00	
       974.140	     1.20121e+00	
       974.337	     1.21793e+00	
       974.731	     1.24810e+00	
       975.126	     1.27431e+00	
       975.400	     1.29095e+00	
       975.520	     1.29774e+00	
       975.640	     1.30443e+00	
       975.880	     1.31759e+00	
       976.361	     1.34266e+00	
       977.321	     1.39073e+00	
       978.282	     1.43587e+00	
       979.181	     1.47759e+00	
       979.243	     1.48049e+00	
       979.305	     1.48339e+00	
       979.429	     1.48939e+00	
       979.677	     1.50141e+00	
       980.173	     1.52536e+00	
       981.166	     1.57240e+00	
       982.380	     1.62988e+00	
       983.152	     1.66658e+00	
       983.923	     1.70356e+00	
       984.315	     1.72317e+00	
       985.466	     1.77991e+00	
       986.618	     1.83671e+00	
       988.532	     1.93208e+00	
       988.922	     1.95197e+00	
       989.312	     1.97195e+00	
       989.428	     1.97792e+00	
       990.093	     2.01216e+00	
       991.654	     2.09466e+00	
       993.880	     2.21759e+00	
       996.105	     2.34589e+00	
       998.215	     2.47356e+00	
       998.331	     2.48073e+00	
       998.447	     2.48791e+00	
       998.679	     2.50291e+00	
       998.967	     2.52150e+00	
       999.143	     2.53283e+00	
       999.247	     2.53951e+00	
       999.319	     2.54414e+00	
       999.672	     2.56666e+00	
      1000.376	     2.61183e+00	
      1001.785	     2.70329e+00	
      1001.821	     2.70566e+00	
      1004.323	     2.87316e+00	
      1006.824	     3.04770e+00	
      1009.326	     3.22924e+00	
      1011.828	     3.41513e+00	
      1014.329	     3.60356e+00	
      1015.580	     3.69659e+00	
      1016.831	     3.78688e+00	
      1017.620	     3.84025e+00	
      1018.082	     3.86749e+00	
      1018.476	     3.88898e+00	
      1018.904	     3.91320e+00	
      1019.332	     3.93023e+00	
      1019.761	     3.94248e+00	
      1020.189	     3.94807e+00	
      1020.616	     3.94556e+00	
      1021.044	     3.93331e+00	
      1021.473	     3.90751e+00	
      1021.900	     3.86579e+00	
      1022.114	     3.83579e+00	
      1022.328	     3.80513e+00	
      1022.470	     3.77651e+00	
      1022.542	     3.76193e+00	
      1022.756	     3.71895e+00	
      1023.043	     3.64522e+00	
      1023.186	     3.60790e+00	
      1023.329	     3.57171e+00	
      1023.472	     3.52242e+00	
      1023.615	     3.47953e+00	
      1023.758	     3.44205e+00	
      1023.761	     3.44130e+00	
      1023.901	     3.40495e+00	
      1024.041	     3.37222e+00	
      1024.102	     3.35978e+00	
      1024.181	     3.34536e+00	
      1024.321	     3.32359e+00	
      1024.540	     3.30009e+00	
      1024.667	     3.28642e+00	
      1024.729	     3.27784e+00	
      1024.760	     3.27235e+00	
      1024.791	     3.26669e+00	
      1024.865	     3.24910e+00	
      1024.915	     3.23735e+00	
      1024.947	     3.23276e+00	
      1024.952	     3.23248e+00	
      1024.965	     3.23210e+00	
      1024.978	     3.23235e+00	
      1024.993	     3.23317e+00	
      1025.009	     3.23430e+00	
      1025.025	     3.23543e+00	
      1025.040	     3.23650e+00	
      1025.056	     3.23766e+00	
      1025.072	     3.23879e+00	
      1025.087	     3.23986e+00	
      1025.103	     3.24102e+00	
      1025.134	     3.24325e+00	
      1025.196	     3.25255e+00	
      1025.271	     3.27963e+00	
      1025.320	     3.29874e+00	
      1025.371	     3.31655e+00	
      1025.471	     3.34652e+00	
      1025.571	     3.37259e+00	
      1025.622	     3.38519e+00	
      1025.771	     3.42405e+00	
      1025.920	     3.46892e+00	
      1026.070	     3.52003e+00	
      1026.219	     3.57711e+00	
      1026.268	     3.59737e+00	
      1026.370	     3.64089e+00	
      1026.669	     3.77246e+00	
      1027.069	     3.95794e+00	
      1027.469	     4.13220e+00	
      1027.669	     4.21256e+00	
      1027.869	     4.29324e+00	
      1028.070	     4.36157e+00	
      1028.270	     4.43037e+00	
      1028.273	     4.43140e+00	
      1028.670	     4.55041e+00	
      1028.796	     4.58669e+00	
      1029.067	     4.65788e+00	
      1029.338	     4.72653e+00	
      1029.881	     4.84795e+00	
      1030.423	     4.96529e+00	
      1030.965	     5.07279e+00	
      1031.508	     5.16817e+00	
      1031.998	     5.24743e+00	
      1032.050	     5.25557e+00	
      1032.592	     5.33804e+00	
      1033.187	     5.42487e+00	
      1034.375	     5.58377e+00	
      1034.862	     5.65088e+00	
      1035.564	     5.74999e+00	
      1035.992	     5.81166e+00	
      1036.265	     5.85156e+00	
      1037.668	     6.04976e+00	
      1039.344	     6.27967e+00	
      1041.045	     6.51139e+00	
      1042.696	     6.74066e+00	
      1044.347	     6.97609e+00	
      1045.948	     7.21083e+00	
      1047.649	     7.46634e+00	
      1049.349	     7.72970e+00	
      1051.150	     8.01998e+00	
      1052.751	     8.28561e+00	
      1054.352	     8.55874e+00	
      1055.753	     8.80406e+00	
      1057.554	     9.12777e+00	
      1059.355	     9.46311e+00	
      1061.556	     9.88288e+00	
      1062.956	     1.01587e+01	
      1064.357	     1.04405e+01	
      1064.957	     1.05631e+01	
      1067.158	     1.10229e+01	
      1069.359	     1.14987e+01	
      1071.560	     1.20033e+01	
      1073.161	     1.23825e+01	
      1073.761	     1.25272e+01	
      1074.362	     1.26734e+01	
      1075.562	     1.29705e+01	
      1076.563	     1.32232e+01	
      1077.963	     1.35853e+01	
      1079.364	     1.39567e+01	
      1081.888	     1.46327e+01	
      1082.165	     1.47085e+01	
      1082.305	     1.47469e+01	
      1082.442	     1.47846e+01	
      1082.997	     1.49379e+01	
      1084.105	     1.52484e+01	
      1085.905	     1.57642e+01	
      1089.368	     1.67999e+01	
      1091.293	     1.74133e+01	
      1092.832	     1.79177e+01	
      1094.370	     1.84349e+01	
      1095.523	     1.88309e+01	
      1097.448	     1.95090e+01	
      1099.372	     2.02084e+01	
      1102.070	     2.12047e+01	
      1103.222	     2.16432e+01	
      1103.982	     2.19369e+01	
      1104.374	     2.20897e+01	
      1106.679	     2.30070e+01	
      1106.875	     2.30865e+01	
      1109.376	     2.41225e+01	
      1111.877	     2.52514e+01	
      1114.378	     2.64270e+01	
      1116.879	     2.76507e+01	
      1118.684	     2.85647e+01	
      1119.380	     2.89245e+01	
      1120.076	     2.92883e+01	
      1121.469	     3.00279e+01	
      1123.778	     3.12908e+01	
      1124.254	     3.15516e+01	
      1124.730	     3.18089e+01	
      1125.682	     3.23289e+01	
      1125.790	     3.23882e+01	
      1127.075	     3.31023e+01	
      1127.587	     3.33907e+01	
      1127.845	     3.35371e+01	
      1129.384	     3.44199e+01	
      1131.692	     3.57790e+01	
      1135.540	     3.81311e+01	
      1139.387	     4.05752e+01	
      1142.080	     4.23333e+01	
      1143.234	     4.31001e+01	
      1144.004	     4.36157e+01	
      1144.388	     4.38739e+01	
      1146.697	     4.54193e+01	
      1149.390	     4.72197e+01	
      1151.891	     4.88467e+01	
      1154.391	     5.04263e+01	
      1156.892	     5.19258e+01	
      1159.393	     5.33420e+01	
      1161.893	     5.46797e+01	
      1164.394	     5.59125e+01	
      1166.895	     5.70347e+01	
      1169.395	     5.80079e+01	
      1171.896	     5.88917e+01	
      1173.146	     5.93541e+01	
      1174.397	     5.98696e+01	
      1175.647	     6.04694e+01	
      1176.897	     6.11665e+01	
      1177.860	     6.17738e+01	
      1178.148	     6.19670e+01	
      1179.398	     6.28670e+01	
      1180.936	     6.40957e+01	
      1182.475	     6.54428e+01	
      1182.858	     6.57928e+01	
      1184.013	     6.68854e+01	
      1185.168	     6.80252e+01	
      1185.558	     6.84201e+01	
      1187.479	     7.04267e+01	
      1189.400	     7.25212e+01	
      1192.085	     7.55572e+01	
      1193.243	     7.68980e+01	
      1194.034	     7.78254e+01	
      1194.402	     7.82602e+01	
      1196.718	     8.10512e+01	
      1199.403	     8.44168e+01	
      1204.404	     9.09120e+01	
      1208.485	     9.62832e+01	
      1209.405	     9.74670e+01	
      1210.325	     9.86071e+01	
      1211.639	     1.00129e+02	
      1212.165	     1.00666e+02	
      1212.691	     1.01151e+02	
      1213.613	     1.01997e+02	
      1213.744	     1.02145e+02	
      1213.807	     1.02217e+02	
      1213.875	     1.02302e+02	
      1214.137	     1.02660e+02	
      1214.171	     1.02711e+02	
      1214.467	     1.03164e+02	
      1214.615	     1.03394e+02	
      1214.763	     1.03625e+02	
      1214.837	     1.03741e+02	
      1214.911	     1.03857e+02	
      1214.948	     1.03915e+02	
      1214.985	     1.03973e+02	
      1215.004	     1.04003e+02	
      1215.022	     1.04031e+02	
      1215.040	     1.04059e+02	
      1215.059	     1.04089e+02	
      1215.077	     1.04117e+02	
      1215.095	     1.04146e+02	
      1215.114	     1.04175e+02	
      1215.132	     1.04203e+02	
      1215.169	     1.04262e+02	
      1215.243	     1.04378e+02	
      1215.391	     1.04611e+02	
      1215.637	     1.05000e+02	
      1215.687	     1.05079e+02	
      1215.737	     1.05158e+02	
      1215.795	     1.05250e+02	
      1215.837	     1.05316e+02	
      1216.037	     1.05640e+02	
      1216.064	     1.05685e+02	
      1216.279	     1.06055e+02	
      1216.763	     1.06991e+02	
      1217.462	     1.08549e+02	
      1218.315	     1.10534e+02	
      1218.861	     1.11770e+02	
