# Koester WD models
# teff = 6500 K (value for the effective temperature for the model. Temperatures are given in K)
# logg = 8.25 log(cm/s2) (value for Log(G) for the model.)
#
#   WAVELENGTH	#           FLUX	
#   (ANGSTROM)	#  (ERG/CM2/S/A)	
##############	################	
       899.230	     2.16811e-01	
       900.444	     2.24534e-01	
       901.511	     2.31527e-01	
       902.873	     2.40742e-01	
       904.235	     2.50292e-01	
       904.678	     2.53468e-01	
       905.598	     2.60187e-01	
       906.959	     2.70440e-01	
       908.450	     2.82083e-01	
       909.241	     2.88444e-01	
       910.032	     2.94937e-01	
       911.193	     3.04713e-01	
       911.613	     3.08325e-01	
       912.034	     3.11976e-01	
       912.465	     3.15765e-01	
       912.875	     3.19396e-01	
       913.037	     3.20848e-01	
       913.241	     3.22679e-01	
       913.284	     3.23069e-01	
       913.478	     3.24825e-01	
       913.531	     3.25306e-01	
       913.755	     3.27335e-01	
       913.822	     3.27948e-01	
       914.080	     3.30316e-01	
       914.165	     3.31099e-01	
       914.499	     3.34193e-01	
       914.575	     3.34903e-01	
       915.071	     3.39546e-01	
       915.540	     3.44008e-01	
       915.609	     3.44655e-01	
       915.643	     3.44978e-01	
       915.677	     3.45305e-01	
       915.741	     3.45921e-01	
       915.813	     3.46618e-01	
       916.085	     3.49508e-01	
       916.429	     3.52584e-01	
       916.858	     3.57919e-01	
       917.118	     3.59964e-01	
       917.378	     3.61965e-01	
       917.509	     3.63278e-01	
       917.639	     3.65471e-01	
       917.769	     3.68503e-01	
       917.899	     3.71085e-01	
       918.029	     3.72860e-01	
       918.159	     3.73648e-01	
       918.237	     3.73482e-01	
       918.289	     3.73231e-01	
       918.420	     3.72687e-01	
       918.602	     3.74387e-01	
       918.784	     3.76473e-01	
       918.966	     3.82382e-01	
       919.045	     3.85467e-01	
       919.148	     3.88923e-01	
       919.251	     3.91863e-01	
       919.354	     3.95219e-01	
       919.458	     3.97666e-01	
       919.561	     3.98797e-01	
       919.664	     3.98282e-01	
       919.767	     3.96127e-01	
       919.870	     3.92818e-01	
       919.937	     3.90852e-01	
       919.973	     3.90066e-01	
       920.076	     3.89894e-01	
       920.215	     3.91373e-01	
       920.355	     3.92884e-01	
       920.494	     3.97053e-01	
       920.633	     4.06038e-01	
       920.772	     4.15915e-01	
       920.911	     4.24341e-01	
       921.050	     4.30882e-01	
       921.189	     4.35459e-01	
       921.329	     4.37982e-01	
       921.468	     4.38390e-01	
       921.607	     4.36446e-01	
       921.746	     4.32217e-01	
       921.885	     4.25893e-01	
       922.024	     4.18661e-01	
       922.163	     4.13877e-01	
       922.200	     4.13597e-01	
       922.302	     4.14385e-01	
       922.405	     4.15542e-01	
       922.408	     4.15576e-01	
       922.508	     4.16720e-01	
       922.609	     4.18237e-01	
       922.709	     4.22428e-01	
       922.810	     4.29481e-01	
       922.911	     4.37929e-01	
       923.011	     4.46383e-01	
       923.112	     4.54617e-01	
       923.212	     4.62339e-01	
       923.314	     4.69156e-01	
       923.414	     4.75081e-01	
       923.515	     4.80356e-01	
       923.615	     4.84826e-01	
       923.716	     4.88455e-01	
       923.816	     4.91270e-01	
       923.917	     4.93268e-01	
       924.017	     4.94427e-01	
       924.118	     4.94722e-01	
       924.218	     4.94122e-01	
       924.320	     4.92586e-01	
       924.420	     4.90051e-01	
       924.521	     4.86752e-01	
       924.621	     4.82436e-01	
       924.722	     4.77070e-01	
       924.822	     4.71116e-01	
       924.923	     4.64802e-01	
       925.023	     4.58402e-01	
       925.124	     4.53005e-01	
       925.224	     4.49926e-01	
       925.326	     4.49926e-01	
       925.368	     4.50426e-01	
       925.426	     4.51136e-01	
       925.484	     4.51846e-01	
       925.600	     4.53272e-01	
       925.716	     4.55364e-01	
       925.832	     4.61202e-01	
       925.948	     4.70529e-01	
       926.064	     4.81418e-01	
       926.224	     4.96758e-01	
       926.297	     5.03585e-01	
       926.369	     5.10009e-01	
       926.513	     5.21998e-01	
       926.657	     5.32971e-01	
       926.801	     5.42578e-01	
       926.945	     5.51148e-01	
       927.089	     5.58676e-01	
       927.233	     5.65072e-01	
       927.378	     5.70391e-01	
       927.522	     5.74666e-01	
       927.666	     5.77902e-01	
       927.726	     5.78939e-01	
       927.810	     5.80089e-01	
       927.954	     5.81204e-01	
       928.068	     5.81292e-01	
       928.182	     5.80648e-01	
       928.297	     5.79266e-01	
       928.411	     5.77082e-01	
       928.525	     5.74035e-01	
       928.639	     5.70271e-01	
       928.645	     5.70055e-01	
       928.753	     5.65754e-01	
       928.756	     5.65625e-01	
       928.867	     5.60309e-01	
       928.917	     5.57626e-01	
       928.978	     5.54127e-01	
       929.089	     5.47488e-01	
       929.261	     5.35635e-01	
       929.325	     5.31061e-01	
       929.434	     5.23292e-01	
       929.543	     5.15812e-01	
       929.652	     5.10232e-01	
       929.719	     5.08272e-01	
       929.753	     5.07848e-01	
       929.755	     5.07835e-01	
       929.761	     5.07794e-01	
       929.769	     5.07741e-01	
       929.819	     5.07948e-01	
       929.827	     5.08036e-01	
       929.883	     5.08753e-01	
       929.910	     5.09120e-01	
       929.939	     5.09516e-01	
       929.954	     5.09720e-01	
       929.968	     5.09912e-01	
       929.982	     5.10104e-01	
       929.996	     5.10295e-01	
       930.010	     5.10490e-01	
       930.024	     5.10682e-01	
       930.038	     5.10873e-01	
       930.052	     5.11065e-01	
       930.081	     5.11461e-01	
       930.137	     5.12230e-01	
       930.201	     5.13185e-01	
       930.247	     5.14228e-01	
       930.249	     5.14285e-01	
       930.251	     5.14351e-01	
       930.301	     5.16277e-01	
       930.326	     5.17533e-01	
       930.402	     5.22510e-01	
       930.478	     5.28969e-01	
       930.630	     5.44315e-01	
       930.633	     5.44623e-01	
       930.782	     5.60488e-01	
       930.931	     5.76322e-01	
       931.080	     5.91213e-01	
       931.229	     6.05328e-01	
       931.379	     6.18360e-01	
       931.528	     6.30741e-01	
       931.677	     6.42110e-01	
       931.788	     6.49986e-01	
       931.814	     6.51764e-01	
       931.826	     6.52578e-01	
       931.838	     6.53385e-01	
       931.888	     6.56687e-01	
       931.988	     6.63017e-01	
       932.188	     6.74622e-01	
       932.389	     6.84955e-01	
       932.589	     6.94088e-01	
       932.789	     7.02111e-01	
       932.989	     7.09064e-01	
       933.189	     7.14973e-01	
       933.347	     7.18906e-01	
       933.375	     7.19535e-01	
       933.377	     7.19582e-01	
       933.389	     7.19843e-01	
       933.403	     7.20144e-01	
       933.432	     7.20732e-01	
       933.460	     7.21300e-01	
       933.542	     7.22840e-01	
       933.652	     7.24630e-01	
       933.872	     7.27228e-01	
       933.973	     7.27967e-01	
       934.092	     7.28457e-01	
       934.312	     7.28243e-01	
       934.483	     7.27049e-01	
       934.652	     7.24897e-01	
       934.752	     7.23144e-01	
       934.821	     7.21699e-01	
       934.991	     7.17433e-01	
       935.230	     7.09359e-01	
       935.469	     6.98740e-01	
       935.709	     6.85448e-01	
       935.752	     6.82841e-01	
       935.948	     6.69546e-01	
       936.144	     6.54824e-01	
       936.340	     6.38632e-01	
       936.472	     6.28133e-01	
       936.536	     6.23380e-01	
       936.601	     6.19264e-01	
       936.629	     6.17599e-01	
       936.714	     6.13899e-01	
       936.729	     6.13434e-01	
       936.829	     6.12350e-01	
       936.887	     6.12969e-01	
       936.944	     6.13870e-01	
       936.973	     6.14338e-01	
       937.001	     6.14794e-01	
       937.015	     6.15020e-01	
       937.029	     6.15250e-01	
       937.043	     6.15476e-01	
       937.058	     6.15721e-01	
       937.072	     6.15947e-01	
       937.086	     6.16176e-01	
       937.101	     6.16418e-01	
       937.115	     6.16648e-01	
       937.143	     6.17103e-01	
       937.200	     6.18033e-01	
       937.314	     6.20226e-01	
       937.428	     6.25485e-01	
       937.493	     6.30260e-01	
       937.542	     6.34771e-01	
       937.593	     6.39745e-01	
       937.694	     6.50951e-01	
       937.794	     6.62625e-01	
       937.950	     6.81814e-01	
       937.988	     6.86507e-01	
       937.994	     6.87239e-01	
       938.000	     6.87968e-01	
       938.050	     6.93984e-01	
       938.150	     7.05687e-01	
       938.350	     7.28714e-01	
       938.550	     7.50156e-01	
       938.587	     7.54039e-01	
       938.751	     7.70460e-01	
       938.914	     7.85876e-01	
       939.147	     8.06378e-01	
       939.209	     8.11564e-01	
       939.240	     8.14122e-01	
       939.271	     8.16644e-01	
       939.395	     8.26449e-01	
       939.643	     8.44997e-01	
       939.892	     8.62138e-01	
       940.140	     8.78113e-01	
       940.532	     9.01722e-01	
       940.636	     9.07644e-01	
       940.740	     9.13396e-01	
       940.949	     9.24404e-01	
       941.365	     9.44702e-01	
       941.781	     9.62700e-01	
       942.198	     9.78496e-01	
       942.614	     9.92062e-01	
       942.979	     1.00210e+00	
       943.014	     1.00294e+00	
       943.031	     1.00336e+00	
       943.048	     1.00377e+00	
       943.116	     1.00538e+00	
       943.252	     1.00841e+00	
       943.524	     1.01369e+00	
       944.068	     1.02105e+00	
       944.613	     1.02385e+00	
       945.007	     1.02281e+00	
       945.157	     1.02168e+00	
       945.308	     1.02007e+00	
       945.608	     1.01552e+00	
       945.908	     1.00959e+00	
       946.208	     1.00152e+00	
       946.460	     9.92809e-01	
       946.509	     9.90909e-01	
       946.809	     9.77437e-01	
       946.983	     9.68075e-01	
       947.158	     9.57488e-01	
       947.333	     9.45522e-01	
       947.508	     9.32315e-01	
       947.683	     9.18055e-01	
       947.857	     9.02391e-01	
       947.980	     8.90902e-01	
       948.032	     8.85822e-01	
       948.083	     8.80573e-01	
       948.186	     8.70501e-01	
       948.239	     8.65305e-01	
       948.392	     8.51281e-01	
       948.546	     8.40071e-01	
       948.621	     8.36716e-01	
       948.661	     8.35544e-01	
       948.699	     8.35045e-01	
       948.777	     8.35390e-01	
       948.835	     8.36458e-01	
       948.893	     8.37696e-01	
       948.922	     8.38321e-01	
       948.951	     8.38947e-01	
       948.966	     8.39270e-01	
       948.980	     8.39572e-01	
       948.994	     8.39873e-01	
       949.009	     8.40197e-01	
       949.023	     8.40499e-01	
       949.037	     8.40800e-01	
       949.052	     8.41124e-01	
       949.066	     8.41425e-01	
       949.095	     8.42054e-01	
       949.153	     8.43307e-01	
       949.230	     8.45004e-01	
       949.258	     8.45692e-01	
       949.269	     8.46009e-01	
       949.280	     8.46339e-01	
       949.330	     8.48224e-01	
       949.360	     8.49685e-01	
       949.430	     8.54563e-01	
       949.500	     8.60894e-01	
       949.640	     8.77547e-01	
       949.781	     8.97135e-01	
       949.795	     8.99105e-01	
       949.879	     9.11555e-01	
       949.921	     9.17863e-01	
       949.963	     9.24071e-01	
       950.131	     9.49584e-01	
       950.467	     9.98272e-01	
       950.719	     1.03266e+00	
       950.804	     1.04375e+00	
       950.888	     1.05457e+00	
       951.056	     1.07545e+00	
       951.392	     1.11458e+00	
       951.728	     1.15069e+00	
       952.065	     1.18439e+00	
       952.401	     1.21660e+00	
       952.738	     1.24794e+00	
       953.413	     1.30705e+00	
       953.510	     1.31529e+00	
       954.087	     1.36306e+00	
       954.762	     1.41673e+00	
       955.243	     1.45418e+00	
       956.014	     1.51295e+00	
       957.266	     1.60651e+00	
       958.148	     1.67179e+00	
       959.289	     1.75591e+00	
       960.430	     1.84018e+00	
       961.192	     1.89667e+00	
       962.712	     2.00926e+00	
       964.231	     2.12204e+00	
       965.750	     2.23230e+00	
       966.507	     2.28417e+00	
       967.269	     2.33146e+00	
       967.651	     2.35185e+00	
       968.032	     2.36889e+00	
       968.292	     2.37771e+00	
       968.413	     2.38091e+00	
       968.543	     2.38359e+00	
       968.795	     2.38605e+00	
       969.046	     2.38421e+00	
       969.297	     2.37684e+00	
       969.548	     2.36242e+00	
       969.672	     2.35226e+00	
       969.799	     2.33940e+00	
       969.927	     2.32385e+00	
       970.054	     2.30501e+00	
       970.181	     2.28287e+00	
       970.308	     2.25722e+00	
       970.435	     2.22771e+00	
       970.504	     2.20988e+00	
       970.562	     2.19389e+00	
       970.689	     2.15511e+00	
       970.874	     2.08856e+00	
       971.059	     2.00782e+00	
       971.142	     1.96571e+00	
       971.245	     1.90525e+00	
       971.348	     1.83615e+00	
       971.451	     1.75225e+00	
       971.467	     1.73756e+00	
       971.523	     1.68295e+00	
       971.554	     1.65128e+00	
       971.585	     1.61867e+00	
       971.644	     1.55618e+00	
       971.703	     1.50452e+00	
       971.732	     1.48927e+00	
       971.762	     1.48412e+00	
       971.778	     1.48425e+00	
       971.792	     1.48473e+00	
       971.806	     1.48524e+00	
       971.821	     1.48578e+00	
       971.827	     1.48600e+00	
       971.833	     1.48622e+00	
       971.836	     1.48632e+00	
       971.839	     1.48643e+00	
       971.851	     1.48687e+00	
       971.866	     1.48741e+00	
       971.880	     1.48792e+00	
       971.910	     1.48917e+00	
       971.969	     1.50988e+00	
       972.037	     1.57438e+00	
       972.087	     1.63184e+00	
       972.137	     1.68889e+00	
       972.150	     1.70329e+00	
       972.237	     1.79482e+00	
       972.324	     1.87406e+00	
       972.499	     2.00404e+00	
       972.548	     2.03609e+00	
       972.673	     2.11008e+00	
       972.798	     2.17550e+00	
       972.923	     2.23437e+00	
       973.048	     2.28778e+00	
       973.173	     2.33671e+00	
       973.298	     2.38199e+00	
       973.423	     2.42442e+00	
       973.601	     2.48044e+00	
       973.673	     2.50186e+00	
       973.746	     2.52261e+00	
       973.890	     2.56232e+00	
       974.178	     2.63419e+00	
       974.466	     2.69977e+00	
       974.754	     2.75949e+00	
       975.043	     2.81368e+00	
       975.331	     2.86479e+00	
       975.556	     2.90050e+00	
       975.598	     2.90704e+00	
       975.619	     2.91030e+00	
       975.640	     2.91355e+00	
       975.724	     2.92647e+00	
       975.892	     2.95200e+00	
       976.228	     3.00061e+00	
       976.901	     3.09438e+00	
       977.187	     3.13386e+00	
       977.574	     3.18438e+00	
       978.246	     3.26873e+00	
       979.305	     3.39879e+00	
       980.364	     3.52342e+00	
       981.422	     3.64148e+00	
       983.157	     3.83381e+00	
       983.540	     3.87685e+00	
       983.923	     3.92020e+00	
       984.690	     4.00738e+00	
       985.828	     4.13836e+00	
       986.223	     4.18444e+00	
       986.618	     4.23078e+00	
       987.409	     4.32362e+00	
       988.668	     4.47419e+00	
       988.990	     4.51334e+00	
       989.312	     4.55261e+00	
       989.957	     4.63112e+00	
       991.246	     4.79153e+00	
       993.767	     5.12359e+00	
       993.823	     5.13110e+00	
       993.880	     5.13861e+00	
       993.992	     5.15366e+00	
       994.216	     5.18388e+00	
       994.664	     5.24413e+00	
       995.561	     5.36606e+00	
       996.260	     5.46373e+00	
       997.354	     5.62034e+00	
       997.574	     5.65232e+00	
       997.806	     5.68619e+00	
       998.447	     5.77953e+00	
       999.319	     5.90745e+00	
      1001.064	     6.16820e+00	
      1004.323	     6.67340e+00	
      1005.836	     6.91584e+00	
      1007.581	     7.20062e+00	
      1009.326	     7.48937e+00	
      1011.303	     7.81418e+00	
      1012.816	     8.05781e+00	
      1014.329	     8.29443e+00	
      1015.086	     8.40527e+00	
      1015.842	     8.51789e+00	
      1016.599	     8.61535e+00	
      1017.355	     8.68540e+00	
      1018.112	     8.74547e+00	
      1018.404	     8.75596e+00	
      1018.868	     8.77745e+00	
      1019.332	     8.76592e+00	
      1019.797	     8.73360e+00	
      1020.261	     8.67686e+00	
      1020.406	     8.65342e+00	
      1020.725	     8.59260e+00	
      1021.044	     8.51447e+00	
      1021.364	     8.42374e+00	
      1021.683	     8.30741e+00	
      1022.002	     8.17254e+00	
      1022.238	     8.06299e+00	
      1022.321	     8.02495e+00	
      1022.439	     7.95546e+00	
      1022.640	     7.83887e+00	
      1022.841	     7.72376e+00	
      1023.043	     7.57479e+00	
      1023.244	     7.43552e+00	
      1023.445	     7.26811e+00	
      1023.646	     7.09359e+00	
      1023.653	     7.08765e+00	
      1023.847	     6.92093e+00	
      1024.041	     6.71914e+00	
      1024.235	     6.49923e+00	
      1024.318	     6.39129e+00	
      1024.429	     6.23499e+00	
      1024.540	     6.04314e+00	
      1024.652	     5.79775e+00	
      1024.679	     5.72819e+00	
      1024.735	     5.57887e+00	
      1024.763	     5.49886e+00	
      1024.791	     5.41937e+00	
      1024.865	     5.20860e+00	
      1024.891	     5.14285e+00	
      1024.903	     5.11659e+00	
      1024.915	     5.09334e+00	
      1024.947	     5.04885e+00	
      1024.952	     5.04508e+00	
      1024.965	     5.03808e+00	
      1024.978	     5.03528e+00	
      1024.993	     5.03544e+00	
      1025.009	     5.03704e+00	
      1025.025	     5.03880e+00	
      1025.040	     5.04043e+00	
      1025.056	     5.04219e+00	
      1025.072	     5.04392e+00	
      1025.087	     5.04555e+00	
      1025.103	     5.04731e+00	
      1025.134	     5.05077e+00	
      1025.196	     5.08954e+00	
      1025.271	     5.26575e+00	
      1025.320	     5.41642e+00	
      1025.371	     5.57768e+00	
      1025.471	     5.87776e+00	
      1025.521	     6.01335e+00	
      1025.571	     6.13688e+00	
      1025.621	     6.24976e+00	
      1025.721	     6.44661e+00	
      1025.772	     6.53533e+00	
      1025.821	     6.61698e+00	
      1025.921	     6.77535e+00	
      1026.070	     6.98995e+00	
      1026.219	     7.19048e+00	
      1026.369	     7.38450e+00	
      1026.518	     7.55817e+00	
      1026.563	     7.61073e+00	
      1026.690	     7.76225e+00	
      1026.816	     7.92310e+00	
      1026.943	     8.05969e+00	
      1027.069	     8.19151e+00	
      1027.322	     8.46889e+00	
      1027.575	     8.71695e+00	
      1027.828	     8.97688e+00	
      1028.082	     9.19978e+00	
      1028.335	     9.42845e+00	
      1028.588	     9.62672e+00	
      1028.615	     9.64799e+00	
      1028.796	     9.79143e+00	
      1028.841	     9.82725e+00	
      1029.067	     9.99033e+00	
      1029.338	     1.01877e+01	
      1029.881	     1.05419e+01	
      1030.423	     1.08979e+01	
      1030.965	     1.12335e+01	
      1031.508	     1.15274e+01	
      1031.998	     1.17663e+01	
      1032.050	     1.17903e+01	
      1032.592	     1.20319e+01	
      1033.187	     1.22808e+01	
      1033.781	     1.24984e+01	
      1034.375	     1.26968e+01	
      1034.862	     1.28768e+01	
      1035.564	     1.31495e+01	
      1036.265	     1.34362e+01	
      1037.668	     1.39709e+01	
      1038.798	     1.43635e+01	
      1039.071	     1.44532e+01	
      1039.344	     1.45425e+01	
      1039.890	     1.47185e+01	
      1040.983	     1.50736e+01	
      1041.989	     1.53983e+01	
      1043.168	     1.57820e+01	
      1044.059	     1.60759e+01	
