# Koester WD models
# teff = 6750 K (value for the effective temperature for the model. Temperatures are given in K)
# logg = 8.5 log(cm/s2) (value for Log(G) for the model.)
#
#   WAVELENGTH	#           FLUX	
#   (ANGSTROM)	#  (ERG/CM2/S/A)	
##############	################	
       899.230	     5.22016e-01	
       899.969	     5.32896e-01	
       900.058	     5.34206e-01	
       901.450	     5.55277e-01	
       902.843	     5.77104e-01	
       904.235	     5.99711e-01	
       904.799	     6.09092e-01	
       905.628	     6.23122e-01	
       907.020	     6.47363e-01	
       908.450	     6.73152e-01	
       909.241	     6.87814e-01	
       910.032	     7.02768e-01	
       911.193	     7.25259e-01	
       911.613	     7.33565e-01	
       912.034	     7.41953e-01	
       912.465	     7.50655e-01	
       912.875	     7.58999e-01	
       913.037	     7.62326e-01	
       913.241	     7.66536e-01	
       913.284	     7.67425e-01	
       913.478	     7.71453e-01	
       913.531	     7.72555e-01	
       913.755	     7.77214e-01	
       913.822	     7.78622e-01	
       914.080	     7.84050e-01	
       914.165	     7.85847e-01	
       914.499	     7.92944e-01	
       914.575	     7.94568e-01	
       915.071	     8.05212e-01	
       915.540	     8.15444e-01	
       915.609	     8.16908e-01	
       915.643	     8.17653e-01	
       915.677	     8.18397e-01	
       915.741	     8.19805e-01	
       915.813	     8.21423e-01	
       916.085	     8.28815e-01	
       916.257	     8.31470e-01	
       916.429	     8.35064e-01	
       916.602	     8.39261e-01	
       916.774	     8.46323e-01	
       916.946	     8.51755e-01	
       917.118	     8.52939e-01	
       917.202	     8.52933e-01	
       917.290	     8.54497e-01	
       917.378	     8.56511e-01	
       917.555	     8.61107e-01	
       917.731	     8.72361e-01	
       917.907	     8.82740e-01	
       917.917	     8.83193e-01	
       918.083	     8.87833e-01	
       918.259	     8.85744e-01	
       918.431	     8.81333e-01	
       918.602	     8.84896e-01	
       918.637	     8.85722e-01	
       918.773	     8.89448e-01	
       918.791	     8.90346e-01	
       918.944	     9.05087e-01	
       919.098	     9.21947e-01	
       919.251	     9.34872e-01	
       919.405	     9.46373e-01	
       919.559	     9.50866e-01	
       919.712	     9.45798e-01	
       919.866	     9.31919e-01	
       920.019	     9.20220e-01	
       920.047	     9.19971e-01	
       920.131	     9.21596e-01	
       920.173	     9.22623e-01	
       920.215	     9.23650e-01	
       920.384	     9.28221e-01	
       920.552	     9.49157e-01	
       920.720	     9.82376e-01	
       920.888	     1.01149e+00	
       921.056	     1.03325e+00	
       921.224	     1.04673e+00	
       921.393	     1.05211e+00	
       921.561	     1.04871e+00	
       921.729	     1.03517e+00	
       921.897	     1.01246e+00	
       922.065	     9.86133e-01	
       922.233	     9.74654e-01	
       922.355	     9.77409e-01	
       922.399	     9.78543e-01	
       922.402	     9.78622e-01	
       922.405	     9.78700e-01	
       922.455	     9.79992e-01	
       922.555	     9.82678e-01	
       922.700	     9.96208e-01	
       922.755	     1.00658e+00	
       922.810	     1.01826e+00	
       922.920	     1.04463e+00	
       923.030	     1.07097e+00	
       923.140	     1.09601e+00	
       923.250	     1.11843e+00	
       923.361	     1.13777e+00	
       923.471	     1.15490e+00	
       923.581	     1.16907e+00	
       923.691	     1.18039e+00	
       923.801	     1.18897e+00	
       923.911	     1.19481e+00	
       924.021	     1.19788e+00	
       924.131	     1.19806e+00	
       924.241	     1.19513e+00	
       924.352	     1.18894e+00	
       924.462	     1.17925e+00	
       924.572	     1.16645e+00	
       924.682	     1.15038e+00	
       924.792	     1.13083e+00	
       924.902	     1.10946e+00	
       925.012	     1.08800e+00	
       925.122	     1.06935e+00	
       925.232	     1.05788e+00	
       925.343	     1.05729e+00	
       925.360	     1.05774e+00	
       925.422	     1.05946e+00	
       925.453	     1.06032e+00	
       925.484	     1.06118e+00	
       925.608	     1.06464e+00	
       925.732	     1.07157e+00	
       925.856	     1.09233e+00	
       925.980	     1.12262e+00	
       926.104	     1.15634e+00	
       926.305	     1.21052e+00	
       926.337	     1.21863e+00	
       926.353	     1.22261e+00	
       926.369	     1.22653e+00	
       926.433	     1.24210e+00	
       926.561	     1.27172e+00	
       926.689	     1.29812e+00	
       926.817	     1.32191e+00	
       926.945	     1.34324e+00	
       927.073	     1.36183e+00	
       927.201	     1.37771e+00	
       927.330	     1.39108e+00	
       927.458	     1.40202e+00	
       927.586	     1.41057e+00	
       927.714	     1.41676e+00	
       927.842	     1.42056e+00	
       927.970	     1.42191e+00	
       928.014	     1.42180e+00	
       928.098	     1.42073e+00	
       928.182	     1.41851e+00	
       928.351	     1.41043e+00	
       928.519	     1.39719e+00	
       928.687	     1.37846e+00	
       928.855	     1.35504e+00	
       928.957	     1.33788e+00	
       929.023	     1.32565e+00	
       929.089	     1.31310e+00	
       929.101	     1.31076e+00	
       929.181	     1.29444e+00	
       929.221	     1.28581e+00	
       929.261	     1.27683e+00	
       929.301	     1.26823e+00	
       929.317	     1.26472e+00	
       929.422	     1.24141e+00	
       929.430	     1.23972e+00	
       929.543	     1.21602e+00	
       929.656	     1.19741e+00	
       929.769	     1.18858e+00	
       929.827	     1.18849e+00	
       929.883	     1.19002e+00	
       929.910	     1.19085e+00	
       929.939	     1.19174e+00	
       929.954	     1.19221e+00	
       929.968	     1.19264e+00	
       929.982	     1.19307e+00	
       929.996	     1.19351e+00	
       930.010	     1.19394e+00	
       930.024	     1.19437e+00	
       930.038	     1.19481e+00	
       930.052	     1.19524e+00	
       930.081	     1.19614e+00	
       930.137	     1.19788e+00	
       930.201	     1.20021e+00	
       930.247	     1.20318e+00	
       930.249	     1.20335e+00	
       930.251	     1.20353e+00	
       930.301	     1.20906e+00	
       930.326	     1.21275e+00	
       930.402	     1.22751e+00	
       930.478	     1.24600e+00	
       930.630	     1.28925e+00	
       930.633	     1.29019e+00	
       930.782	     1.33602e+00	
       930.931	     1.38052e+00	
       931.080	     1.42331e+00	
       931.229	     1.46317e+00	
       931.379	     1.50075e+00	
       931.528	     1.53572e+00	
       931.677	     1.56773e+00	
       931.788	     1.58993e+00	
       931.814	     1.59491e+00	
       931.826	     1.59719e+00	
       931.838	     1.59945e+00	
       931.888	     1.60867e+00	
       931.988	     1.62634e+00	
       932.188	     1.65853e+00	
       932.389	     1.68687e+00	
       932.589	     1.71172e+00	
       932.789	     1.73323e+00	
       932.989	     1.75153e+00	
       933.189	     1.76678e+00	
       933.347	     1.77669e+00	
       933.375	     1.77825e+00	
       933.377	     1.77836e+00	
       933.389	     1.77901e+00	
       933.403	     1.77975e+00	
       933.432	     1.78119e+00	
       933.460	     1.78256e+00	
       933.542	     1.78626e+00	
       933.652	     1.79039e+00	
       933.872	     1.79579e+00	
       933.973	     1.79694e+00	
       934.092	     1.79719e+00	
       934.143	     1.79692e+00	
       934.312	     1.79429e+00	
       934.483	     1.78890e+00	
       934.652	     1.78064e+00	
       934.752	     1.77442e+00	
       934.821	     1.76943e+00	
       934.991	     1.75490e+00	
       935.230	     1.72843e+00	
       935.469	     1.69448e+00	
       935.709	     1.65216e+00	
       935.752	     1.64398e+00	
       935.948	     1.60314e+00	
       936.144	     1.55755e+00	
       936.340	     1.50842e+00	
       936.472	     1.47622e+00	
       936.536	     1.46130e+00	
       936.601	     1.44811e+00	
       936.629	     1.44321e+00	
       936.714	     1.43052e+00	
       936.729	     1.42910e+00	
       936.829	     1.42388e+00	
       936.887	     1.42477e+00	
       936.944	     1.42674e+00	
       936.973	     1.42780e+00	
       937.001	     1.42882e+00	
       937.015	     1.42933e+00	
       937.029	     1.42984e+00	
       937.043	     1.43035e+00	
       937.058	     1.43090e+00	
       937.072	     1.43141e+00	
       937.086	     1.43192e+00	
       937.101	     1.43247e+00	
       937.115	     1.43298e+00	
       937.143	     1.43401e+00	
       937.200	     1.43609e+00	
       937.314	     1.44156e+00	
       937.428	     1.45654e+00	
       937.493	     1.47060e+00	
       937.542	     1.48308e+00	
       937.593	     1.49763e+00	
       937.694	     1.52925e+00	
       937.794	     1.56256e+00	
       937.950	     1.61666e+00	
       937.988	     1.62971e+00	
       937.994	     1.63175e+00	
       938.000	     1.63379e+00	
       938.050	     1.65066e+00	
       938.150	     1.68420e+00	
       938.350	     1.74894e+00	
       938.550	     1.81012e+00	
       938.587	     1.82106e+00	
       938.751	     1.86720e+00	
       938.914	     1.91066e+00	
       939.077	     1.95148e+00	
       939.147	     1.96824e+00	
       939.209	     1.98269e+00	
       939.240	     1.98981e+00	
       939.271	     1.99684e+00	
       939.395	     2.02436e+00	
       939.643	     2.07594e+00	
       939.892	     2.12352e+00	
       940.140	     2.16808e+00	
       940.388	     2.21022e+00	
       940.532	     2.23319e+00	
       940.636	     2.24916e+00	
       940.740	     2.26467e+00	
       940.949	     2.29456e+00	
       941.365	     2.34873e+00	
       941.781	     2.39621e+00	
       942.198	     2.43713e+00	
       942.614	     2.47142e+00	
       942.979	     2.49590e+00	
       943.014	     2.49791e+00	
       943.031	     2.49890e+00	
       943.048	     2.49987e+00	
       943.116	     2.50366e+00	
       943.252	     2.51065e+00	
       943.524	     2.52233e+00	
       943.796	     2.53087e+00	
       944.068	     2.53616e+00	
       944.341	     2.53812e+00	
       944.613	     2.53663e+00	
       944.885	     2.53152e+00	
       945.007	     2.52785e+00	
       945.157	     2.52227e+00	
       945.308	     2.51549e+00	
       945.608	     2.49766e+00	
       945.908	     2.47436e+00	
       946.208	     2.44598e+00	
       946.460	     2.41671e+00	
       946.509	     2.41030e+00	
       946.634	     2.39296e+00	
       946.809	     2.36638e+00	
       946.983	     2.33637e+00	
       947.108	     2.31275e+00	
       947.158	     2.30275e+00	
       947.208	     2.29249e+00	
       947.308	     2.27100e+00	
       947.509	     2.22367e+00	
       947.709	     2.17298e+00	
       947.735	     2.16593e+00	
       947.909	     2.11700e+00	
       948.083	     2.06606e+00	
       948.317	     1.99708e+00	
       948.431	     1.96617e+00	
       948.546	     1.94103e+00	
       948.660	     1.92499e+00	
       948.727	     1.92155e+00	
       948.761	     1.92133e+00	
       948.771	     1.92149e+00	
       948.774	     1.92156e+00	
       948.777	     1.92164e+00	
       948.827	     1.92334e+00	
       948.835	     1.92371e+00	
       948.893	     1.92643e+00	
       948.922	     1.92782e+00	
       948.951	     1.92920e+00	
       948.966	     1.92992e+00	
       948.980	     1.93059e+00	
       948.994	     1.93126e+00	
       949.009	     1.93198e+00	
       949.023	     1.93265e+00	
       949.037	     1.93332e+00	
       949.052	     1.93404e+00	
       949.066	     1.93471e+00	
       949.095	     1.93610e+00	
       949.153	     1.93889e+00	
       949.230	     1.94271e+00	
       949.258	     1.94444e+00	
       949.269	     1.94522e+00	
       949.280	     1.94601e+00	
       949.330	     1.95130e+00	
       949.360	     1.95550e+00	
       949.430	     1.96900e+00	
       949.500	     1.98748e+00	
       949.640	     2.03385e+00	
       949.781	     2.08813e+00	
       949.795	     2.09400e+00	
       949.879	     2.12905e+00	
       949.921	     2.14644e+00	
       949.963	     2.16455e+00	
       950.047	     2.20006e+00	
       950.131	     2.23480e+00	
       950.257	     2.28692e+00	
       950.467	     2.37086e+00	
       950.677	     2.45182e+00	
       950.888	     2.52838e+00	
       951.098	     2.60065e+00	
       951.308	     2.66886e+00	
       951.518	     2.73352e+00	
       951.728	     2.79504e+00	
       952.149	     2.91094e+00	
       952.400	     2.97783e+00	
       952.569	     3.02113e+00	
       952.738	     3.06358e+00	
       953.076	     3.14536e+00	
       953.753	     3.30071e+00	
       954.198	     3.39773e+00	
       954.430	     3.44692e+00	
       955.106	     3.58786e+00	
       956.014	     3.77010e+00	
       956.370	     3.84031e+00	
       956.922	     3.94823e+00	
       957.830	     4.12321e+00	
       958.148	     4.18407e+00	
       959.289	     4.40172e+00	
       960.430	     4.61802e+00	
       961.192	     4.76234e+00	
       962.712	     5.04936e+00	
       964.231	     5.33317e+00	
       964.991	     5.47218e+00	
       965.750	     5.60589e+00	
       966.507	     5.72948e+00	
       966.510	     5.72992e+00	
       966.888	     5.78571e+00	
       967.269	     5.83598e+00	
       967.651	     5.87792e+00	
       968.032	     5.90877e+00	
       968.292	     5.92074e+00	
       968.413	     5.92347e+00	
       968.543	     5.92410e+00	
       968.795	     5.91700e+00	
       969.046	     5.89664e+00	
       969.297	     5.86042e+00	
       969.548	     5.80453e+00	
       969.672	     5.76866e+00	
       969.799	     5.72558e+00	
       969.927	     5.67585e+00	
       970.054	     5.61729e+00	
       970.181	     5.55069e+00	
       970.308	     5.47520e+00	
       970.435	     5.39009e+00	
       970.504	     5.33879e+00	
       970.562	     5.29327e+00	
       970.689	     5.18350e+00	
       970.874	     4.99551e+00	
       971.059	     4.76642e+00	
       971.142	     4.64579e+00	
       971.245	     4.47272e+00	
       971.348	     4.27643e+00	
       971.451	     4.04047e+00	
       971.467	     3.99978e+00	
       971.523	     3.85156e+00	
       971.554	     3.76576e+00	
       971.585	     3.68009e+00	
       971.644	     3.51880e+00	
       971.703	     3.39182e+00	
       971.732	     3.35714e+00	
       971.762	     3.34661e+00	
       971.778	     3.34708e+00	
       971.792	     3.34815e+00	
       971.806	     3.34925e+00	
       971.821	     3.35045e+00	
       971.827	     3.35092e+00	
       971.833	     3.35139e+00	
       971.836	     3.35161e+00	
       971.839	     3.35186e+00	
       971.851	     3.35280e+00	
       971.866	     3.35400e+00	
       971.880	     3.35510e+00	
       971.910	     3.35773e+00	
       971.969	     3.40329e+00	
       972.037	     3.55889e+00	
       972.087	     3.70604e+00	
       972.137	     3.85505e+00	
       972.150	     3.89363e+00	
       972.237	     4.13999e+00	
       972.324	     4.35802e+00	
       972.499	     4.71820e+00	
       972.548	     4.80698e+00	
       972.673	     5.01056e+00	
       972.798	     5.18875e+00	
       972.923	     5.34740e+00	
       973.048	     5.49072e+00	
       973.173	     5.62128e+00	
       973.298	     5.74195e+00	
       973.351	     5.79090e+00	
       973.423	     5.85483e+00	
       973.548	     5.96105e+00	
       973.746	     6.11674e+00	
       973.943	     6.26160e+00	
       974.140	     6.39352e+00	
       974.337	     6.51836e+00	
       974.534	     6.63790e+00	
       974.928	     6.85247e+00	
       975.006	     6.89181e+00	
       975.323	     7.04867e+00	
       975.640	     7.18693e+00	
       975.957	     7.31985e+00	
       976.592	     7.56602e+00	
       977.226	     7.80651e+00	
       977.686	     7.96805e+00	
       977.861	     8.02872e+00	
       978.495	     8.23836e+00	
       979.305	     8.50680e+00	
       980.114	     8.76363e+00	
       980.924	     9.00098e+00	
       981.163	     9.06915e+00	
       981.228	     9.08772e+00	
       982.543	     9.45930e+00	
       983.923	     9.85216e+00	
       984.745	     1.00883e+01	
       986.618	     1.06336e+01	
       987.029	     1.07537e+01	
       989.312	     1.14356e+01	
       991.596	     1.21385e+01	
       993.829	     1.28758e+01	
       993.880	     1.28925e+01	
       993.930	     1.29091e+01	
       994.030	     1.29425e+01	
       994.230	     1.30095e+01	
       994.630	     1.31425e+01	
       995.431	     1.34106e+01	
       995.617	     1.34737e+01	
       997.032	     1.39711e+01	
       997.574	     1.41668e+01	
       997.806	     1.42512e+01	
       998.447	     1.44827e+01	
       999.319	     1.47987e+01	
      1001.064	     1.54382e+01	
      1004.323	     1.66676e+01	
      1005.836	     1.72518e+01	
      1007.581	     1.79321e+01	
      1009.326	     1.86131e+01	
      1011.303	     1.93619e+01	
      1012.816	     1.99050e+01	
      1014.329	     2.04060e+01	
      1015.086	     2.06260e+01	
      1015.842	     2.08401e+01	
      1016.599	     2.10059e+01	
      1017.355	     2.10943e+01	
      1018.112	     2.11426e+01	
      1018.404	     2.11265e+01	
      1018.868	     2.11056e+01	
      1019.332	     2.09991e+01	
      1019.797	     2.08358e+01	
      1020.261	     2.06138e+01	
      1020.406	     2.05297e+01	
      1020.725	     2.03201e+01	
      1021.044	     2.00687e+01	
      1021.364	     1.97928e+01	
      1021.683	     1.94538e+01	
      1022.002	     1.90732e+01	
      1022.238	     1.87749e+01	
      1022.321	     1.86706e+01	
      1022.640	     1.81767e+01	
      1022.841	     1.78772e+01	
      1023.043	     1.74917e+01	
      1023.244	     1.71343e+01	
      1023.445	     1.67019e+01	
      1023.646	     1.62469e+01	
      1023.653	     1.62314e+01	
      1023.847	     1.57896e+01	
      1024.041	     1.52490e+01	
      1024.235	     1.46504e+01	
      1024.318	     1.43549e+01	
      1024.429	     1.39326e+01	
      1024.540	     1.34113e+01	
      1024.652	     1.27579e+01	
      1024.679	     1.25782e+01	
      1024.735	     1.21924e+01	
      1024.763	     1.19918e+01	
      1024.791	     1.17899e+01	
      1024.865	     1.12753e+01	
      1024.891	     1.11207e+01	
      1024.903	     1.10628e+01	
      1024.915	     1.10073e+01	
      1024.947	     1.09130e+01	
      1024.952	     1.09041e+01	
      1024.965	     1.08901e+01	
      1024.978	     1.08856e+01	
      1024.993	     1.08865e+01	
      1025.009	     1.08899e+01	
      1025.025	     1.08935e+01	
      1025.040	     1.08969e+01	
      1025.056	     1.09006e+01	
      1025.072	     1.09042e+01	
      1025.087	     1.09076e+01	
      1025.103	     1.09113e+01	
      1025.134	     1.09184e+01	
      1025.196	     1.09982e+01	
      1025.271	     1.13985e+01	
      1025.320	     1.17595e+01	
      1025.371	     1.21603e+01	
      1025.471	     1.29162e+01	
      1025.571	     1.35904e+01	
      1025.671	     1.41587e+01	
      1025.771	     1.46363e+01	
      1025.871	     1.50635e+01	
      1025.971	     1.54631e+01	
      1026.070	     1.58281e+01	
      1026.268	     1.65109e+01	
      1026.467	     1.71265e+01	
      1026.665	     1.77104e+01	
      1027.019	     1.87142e+01	
      1027.053	     1.88016e+01	
      1027.061	     1.88221e+01	
      1027.069	     1.88427e+01	
      1027.119	     1.89722e+01	
      1027.219	     1.92381e+01	
      1027.419	     1.97592e+01	
      1027.619	     2.02419e+01	
      1027.819	     2.07544e+01	
      1028.020	     2.11995e+01	
      1028.220	     2.16459e+01	
      1028.620	     2.24795e+01	
      1028.879	     2.29988e+01	
      1028.973	     2.31720e+01	
      1029.020	     2.32591e+01	
      1029.067	     2.33463e+01	
      1029.172	     2.35428e+01	
      1029.255	     2.36995e+01	
      1029.338	     2.38579e+01	
      1029.504	     2.41399e+01	
      1029.837	     2.47114e+01	
      1030.501	     2.58640e+01	
      1030.833	     2.64412e+01	
      1031.165	     2.69470e+01	
      1031.498	     2.74278e+01	
      1031.830	     2.78770e+01	
      1032.494	     2.86896e+01	
      1033.074	     2.93454e+01	
      1033.131	     2.94075e+01	
