# Koester WD models
# teff = 6250 K (value for the effective temperature for the model. Temperatures are given in K)
# logg = 8.75 log(cm/s2) (value for Log(G) for the model.)
#
#   WAVELENGTH	#           FLUX	
#   (ANGSTROM)	#  (ERG/CM2/S/A)	
##############	################	
       899.230	     1.18256e-01	
       901.337	     1.25830e-01	
       902.653	     1.30786e-01	
       903.444	     1.33848e-01	
       904.235	     1.36975e-01	
       905.817	     1.43432e-01	
       907.398	     1.50166e-01	
       908.718	     1.56008e-01	
       908.979	     1.57189e-01	
       909.241	     1.58378e-01	
       909.495	     1.59545e-01	
       909.763	     1.60782e-01	
       910.032	     1.62027e-01	
       910.568	     1.64546e-01	
       911.247	     1.67786e-01	
       911.640	     1.69690e-01	
       912.034	     1.71613e-01	
       912.357	     1.73208e-01	
       912.821	     1.75520e-01	
       913.037	     1.76608e-01	
       913.241	     1.77642e-01	
       913.284	     1.77860e-01	
       913.478	     1.78849e-01	
       913.531	     1.79120e-01	
       913.755	     1.80264e-01	
       913.822	     1.80610e-01	
       914.080	     1.81944e-01	
       914.165	     1.82386e-01	
       914.499	     1.84131e-01	
       914.575	     1.84530e-01	
       915.071	     1.87150e-01	
       915.540	     1.89664e-01	
       915.609	     1.90031e-01	
       915.643	     1.90214e-01	
       915.677	     1.90398e-01	
       915.741	     1.90745e-01	
       915.813	     1.91135e-01	
       916.085	     1.92623e-01	
       916.429	     1.94508e-01	
       916.858	     1.96918e-01	
       917.118	     1.98365e-01	
       917.196	     1.98784e-01	
       917.378	     1.99804e-01	
       917.899	     2.02956e-01	
       917.952	     2.03281e-01	
       918.276	     2.05096e-01	
       918.602	     2.06825e-01	
       918.927	     2.09001e-01	
       919.251	     2.11481e-01	
       919.576	     2.13555e-01	
       919.587	     2.13614e-01	
       919.901	     2.14901e-01	
       920.215	     2.16433e-01	
       920.530	     2.18842e-01	
       920.844	     2.22156e-01	
       921.158	     2.24896e-01	
       921.473	     2.27142e-01	
       921.630	     2.27996e-01	
       921.787	     2.28577e-01	
       921.798	     2.28606e-01	
       921.944	     2.28790e-01	
       921.950	     2.28791e-01	
       922.101	     2.28713e-01	
       922.253	     2.29153e-01	
       922.355	     2.29801e-01	
       922.405	     2.30122e-01	
       922.455	     2.30444e-01	
       922.555	     2.31093e-01	
       922.700	     2.32565e-01	
       922.755	     2.33356e-01	
       922.810	     2.34224e-01	
       922.920	     2.36094e-01	
       923.140	     2.39753e-01	
       923.361	     2.42916e-01	
       923.581	     2.45526e-01	
       923.801	     2.47746e-01	
       924.021	     2.49554e-01	
       924.241	     2.50924e-01	
       924.462	     2.51731e-01	
       924.682	     2.51841e-01	
       924.902	     2.50937e-01	
       925.201	     2.49215e-01	
       925.343	     2.49740e-01	
       925.484	     2.50718e-01	
       925.625	     2.51703e-01	
       925.766	     2.53152e-01	
       925.907	     2.55810e-01	
       926.010	     2.58124e-01	
       926.048	     2.58968e-01	
       926.189	     2.61970e-01	
       926.369	     2.65406e-01	
       926.548	     2.68429e-01	
       926.727	     2.71115e-01	
       927.085	     2.75725e-01	
       927.444	     2.79554e-01	
       927.802	     2.82715e-01	
       928.094	     2.84793e-01	
       928.138	     2.85062e-01	
       928.160	     2.85191e-01	
       928.182	     2.85317e-01	
       928.270	     2.85856e-01	
       928.447	     2.86658e-01	
       928.509	     2.86853e-01	
       928.799	     2.87234e-01	
       928.917	     2.87048e-01	
       929.089	     2.86449e-01	
       929.261	     2.85343e-01	
       929.325	     2.84850e-01	
       929.434	     2.83935e-01	
       929.543	     2.82979e-01	
       929.719	     2.82210e-01	
       929.753	     2.82273e-01	
       929.755	     2.82279e-01	
       929.761	     2.82298e-01	
       929.769	     2.82324e-01	
       929.819	     2.82600e-01	
       929.827	     2.82656e-01	
       929.883	     2.83079e-01	
       929.910	     2.83289e-01	
       929.939	     2.83515e-01	
       929.954	     2.83632e-01	
       929.968	     2.83741e-01	
       929.982	     2.83850e-01	
       929.996	     2.83959e-01	
       930.010	     2.84069e-01	
       930.024	     2.84178e-01	
       930.038	     2.84287e-01	
       930.052	     2.84396e-01	
       930.081	     2.84623e-01	
       930.137	     2.85061e-01	
       930.201	     2.85581e-01	
       930.247	     2.86037e-01	
       930.249	     2.86062e-01	
       930.251	     2.86087e-01	
       930.301	     2.86759e-01	
       930.326	     2.87157e-01	
       930.329	     2.87209e-01	
       930.402	     2.88613e-01	
       930.478	     2.90345e-01	
       930.630	     2.94169e-01	
       930.931	     3.01513e-01	
       931.229	     3.07774e-01	
       931.232	     3.07831e-01	
       931.534	     3.13282e-01	
       931.838	     3.18093e-01	
       932.142	     3.22415e-01	
       932.447	     3.26320e-01	
       932.751	     3.29899e-01	
       933.265	     3.35378e-01	
       933.315	     3.35874e-01	
       933.359	     3.36307e-01	
       933.403	     3.36735e-01	
       933.432	     3.37002e-01	
       933.542	     3.38032e-01	
       933.652	     3.39034e-01	
       933.872	     3.40941e-01	
       933.973	     3.41771e-01	
       934.073	     3.42559e-01	
       934.312	     3.44312e-01	
       934.652	     3.46395e-01	
       934.941	     3.47724e-01	
       935.230	     3.48503e-01	
       935.473	     3.48670e-01	
       935.520	     3.48638e-01	
       935.809	     3.48041e-01	
       936.144	     3.46247e-01	
       936.358	     3.44385e-01	
       936.372	     3.44256e-01	
       936.479	     3.43279e-01	
       936.486	     3.43206e-01	
       936.601	     3.42299e-01	
       936.715	     3.41796e-01	
       936.829	     3.42094e-01	
       936.887	     3.42556e-01	
       936.944	     3.43078e-01	
       936.973	     3.43348e-01	
       937.001	     3.43609e-01	
       937.015	     3.43737e-01	
       937.029	     3.43869e-01	
       937.043	     3.43998e-01	
       937.058	     3.44136e-01	
       937.072	     3.44268e-01	
       937.086	     3.44397e-01	
       937.101	     3.44538e-01	
       937.115	     3.44667e-01	
       937.143	     3.44928e-01	
       937.200	     3.45459e-01	
       937.314	     3.46606e-01	
       937.428	     3.48434e-01	
       937.493	     3.49848e-01	
       937.542	     3.51098e-01	
       937.593	     3.52436e-01	
       937.694	     3.55302e-01	
       937.788	     3.57988e-01	
       937.894	     3.61057e-01	
       938.000	     3.64082e-01	
       938.212	     3.69677e-01	
       938.359	     3.73341e-01	
       938.556	     3.77949e-01	
       938.636	     3.79759e-01	
       938.914	     3.85678e-01	
       939.271	     3.92687e-01	
       939.628	     3.99168e-01	
       939.986	     4.05287e-01	
       940.580	     4.14989e-01	
       940.660	     4.16255e-01	
       940.700	     4.16886e-01	
       940.740	     4.17515e-01	
       940.901	     4.20345e-01	
       941.221	     4.25689e-01	
       941.861	     4.35472e-01	
       941.957	     4.36832e-01	
       942.502	     4.44268e-01	
       943.048	     4.51035e-01	
       943.593	     4.57092e-01	
       944.139	     4.62458e-01	
       944.684	     4.67054e-01	
       945.151	     4.70372e-01	
       945.230	     4.70865e-01	
       945.308	     4.71343e-01	
       945.464	     4.72254e-01	
       945.643	     4.73209e-01	
       945.776	     4.73928e-01	
       946.401	     4.76605e-01	
       946.780	     4.77604e-01	
       947.158	     4.77865e-01	
       947.537	     4.77114e-01	
       947.749	     4.76171e-01	
       947.916	     4.75122e-01	
       948.083	     4.73664e-01	
       948.289	     4.71669e-01	
       948.314	     4.71418e-01	
       948.417	     4.70391e-01	
       948.429	     4.70271e-01	
       948.546	     4.69486e-01	
       948.661	     4.69382e-01	
       948.777	     4.70215e-01	
       948.835	     4.70893e-01	
       948.893	     4.71610e-01	
       948.922	     4.71968e-01	
       948.951	     4.72329e-01	
       948.966	     4.72514e-01	
       948.980	     4.72687e-01	
       948.994	     4.72863e-01	
       949.009	     4.73048e-01	
       949.023	     4.73221e-01	
       949.037	     4.73397e-01	
       949.052	     4.73583e-01	
       949.066	     4.73758e-01	
       949.095	     4.74120e-01	
       949.153	     4.74842e-01	
       949.230	     4.75810e-01	
       949.258	     4.76177e-01	
       949.269	     4.76335e-01	
       949.280	     4.76492e-01	
       949.330	     4.77302e-01	
       949.360	     4.77858e-01	
       949.430	     4.79482e-01	
       949.500	     4.81402e-01	
       949.640	     4.86004e-01	
       949.795	     4.91543e-01	
       949.879	     4.94612e-01	
       949.921	     4.96136e-01	
       949.963	     4.97625e-01	
       950.047	     5.00679e-01	
       950.131	     5.03597e-01	
       950.467	     5.14590e-01	
       950.888	     5.27147e-01	
       951.308	     5.38689e-01	
       951.559	     5.45271e-01	
       951.820	     5.51978e-01	
       952.149	     5.60316e-01	
       952.738	     5.75543e-01	
       953.917	     6.06519e-01	
       954.965	     6.34649e-01	
       956.014	     6.63259e-01	
       956.933	     6.89683e-01	
       957.063	     6.93412e-01	
       958.111	     7.23691e-01	
       958.148	     7.24765e-01	
       959.289	     7.57972e-01	
       960.430	     7.91367e-01	
       961.192	     8.13867e-01	
       962.712	     8.59050e-01	
       964.231	     9.04530e-01	
       966.507	     9.74195e-01	
       967.269	     9.96221e-01	
       967.651	     1.00646e+00	
       968.032	     1.01586e+00	
       968.292	     1.02149e+00	
       968.413	     1.02386e+00	
       968.543	     1.02620e+00	
       968.795	     1.02992e+00	
       969.046	     1.03232e+00	
       969.297	     1.03299e+00	
       969.548	     1.03141e+00	
       969.672	     1.02953e+00	
       969.799	     1.02666e+00	
       969.927	     1.02271e+00	
       970.054	     1.01761e+00	
       970.181	     1.01121e+00	
       970.308	     1.00344e+00	
       970.435	     9.94236e-01	
       970.504	     9.88631e-01	
       970.562	     9.83595e-01	
       970.689	     9.71560e-01	
       970.874	     9.52330e-01	
       971.142	     9.23898e-01	
       971.245	     9.13252e-01	
       971.348	     9.02975e-01	
       971.451	     8.91502e-01	
       971.467	     8.89473e-01	
       971.523	     8.81594e-01	
       971.554	     8.76840e-01	
       971.585	     8.71632e-01	
       971.644	     8.60762e-01	
       971.703	     8.50718e-01	
       971.732	     8.47624e-01	
       971.762	     8.46738e-01	
       971.778	     8.46964e-01	
       971.792	     8.47253e-01	
       971.806	     8.47548e-01	
       971.821	     8.47866e-01	
       971.827	     8.47991e-01	
       971.833	     8.48120e-01	
       971.836	     8.48183e-01	
       971.839	     8.48246e-01	
       971.851	     8.48500e-01	
       971.866	     8.48817e-01	
       971.880	     8.49113e-01	
       971.910	     8.49791e-01	
       971.969	     8.55412e-01	
       972.037	     8.69882e-01	
       972.087	     8.81421e-01	
       972.137	     8.92027e-01	
       972.150	     8.94584e-01	
       972.199	     9.03874e-01	
       972.237	     9.10493e-01	
       972.324	     9.24235e-01	
       972.499	     9.49977e-01	
       972.798	     9.95558e-01	
       973.047	     1.03267e+00	
       973.097	     1.03978e+00	
       973.222	     1.05684e+00	
       973.396	     1.07917e+00	
       973.571	     1.09977e+00	
       973.696	     1.11347e+00	
       973.746	     1.11877e+00	
       973.796	     1.12396e+00	
       973.896	     1.13402e+00	
       974.096	     1.15258e+00	
       974.296	     1.16966e+00	
       974.496	     1.18579e+00	
       974.896	     1.21456e+00	
       974.953	     1.21838e+00	
       975.297	     1.24060e+00	
       975.640	     1.26028e+00	
       975.983	     1.27904e+00	
       976.670	     1.31429e+00	
       976.781	     1.31989e+00	
       977.356	     1.34853e+00	
       978.043	     1.38102e+00	
       979.305	     1.43937e+00	
       979.734	     1.45940e+00	
       981.228	     1.52771e+00	
       981.829	     1.55499e+00	
       983.923	     1.65135e+00	
       986.618	     1.78004e+00	
       989.312	     1.91295e+00	
       990.133	     1.95451e+00	
       992.006	     2.05237e+00	
       993.059	     2.10934e+00	
       993.880	     2.15450e+00	
       995.753	     2.25970e+00	
       997.574	     2.36652e+00	
       997.806	     2.38043e+00	
       998.447	     2.41897e+00	
       999.319	     2.47257e+00	
      1001.064	     2.58157e+00	
      1004.323	     2.79372e+00	
      1005.836	     2.89627e+00	
      1007.581	     3.01771e+00	
      1009.326	     3.14228e+00	
      1011.303	     3.28526e+00	
      1012.816	     3.39584e+00	
      1014.329	     3.50636e+00	
      1015.378	     3.58208e+00	
      1016.366	     3.65075e+00	
      1017.355	     3.71518e+00	
      1017.620	     3.73363e+00	
      1018.344	     3.77186e+00	
      1018.476	     3.77786e+00	
      1018.904	     3.80010e+00	
      1019.332	     3.81402e+00	
      1019.761	     3.82269e+00	
      1020.189	     3.82483e+00	
      1020.616	     3.81892e+00	
      1021.044	     3.80284e+00	
      1021.473	     3.77368e+00	
      1021.900	     3.72967e+00	
      1022.114	     3.69951e+00	
      1022.328	     3.66812e+00	
      1022.470	     3.63985e+00	
      1022.542	     3.62555e+00	
      1022.756	     3.58349e+00	
      1023.043	     3.51196e+00	
      1023.186	     3.47598e+00	
      1023.329	     3.44102e+00	
      1023.472	     3.39327e+00	
      1023.615	     3.35133e+00	
      1023.758	     3.31385e+00	
      1023.761	     3.31309e+00	
      1023.901	     3.27546e+00	
      1024.041	     3.23923e+00	
      1024.102	     3.22459e+00	
      1024.290	     3.18177e+00	
      1024.321	     3.17477e+00	
      1024.415	     3.15460e+00	
      1024.540	     3.12489e+00	
      1024.666	     3.08545e+00	
      1024.791	     3.03137e+00	
      1024.852	     2.99896e+00	
      1024.915	     2.96908e+00	
      1024.947	     2.95985e+00	
      1024.978	     2.95759e+00	
      1024.993	     2.95818e+00	
      1025.009	     2.95919e+00	
      1025.025	     2.96024e+00	
      1025.040	     2.96123e+00	
      1025.056	     2.96228e+00	
      1025.072	     2.96333e+00	
      1025.087	     2.96432e+00	
      1025.103	     2.96537e+00	
      1025.134	     2.96742e+00	
      1025.196	     2.97936e+00	
      1025.271	     3.02184e+00	
      1025.320	     3.05461e+00	
      1025.371	     3.08698e+00	
      1025.471	     3.14332e+00	
      1025.521	     3.16779e+00	
      1025.571	     3.19022e+00	
      1025.621	     3.21093e+00	
      1025.721	     3.24916e+00	
      1025.772	     3.26785e+00	
      1025.921	     3.32337e+00	
      1026.070	     3.38054e+00	
      1026.264	     3.45990e+00	
      1026.369	     3.50507e+00	
      1026.667	     3.63369e+00	
      1027.069	     3.81396e+00	
      1027.471	     3.98345e+00	
      1027.672	     4.06214e+00	
      1027.873	     4.14112e+00	
      1028.075	     4.20929e+00	
      1028.276	     4.27740e+00	
      1028.289	     4.28183e+00	
      1028.477	     4.33910e+00	
      1028.678	     4.39722e+00	
      1028.796	     4.43137e+00	
      1029.067	     4.50310e+00	
      1029.338	     4.57281e+00	
      1029.881	     4.69615e+00	
      1030.423	     4.81587e+00	
      1030.965	     4.92665e+00	
      1031.508	     5.02429e+00	
      1031.998	     5.10490e+00	
      1032.050	     5.11310e+00	
      1032.592	     5.19638e+00	
      1033.187	     5.28381e+00	
      1034.375	     5.44206e+00	
      1034.862	     5.50907e+00	
      1035.564	     5.60818e+00	
      1035.992	     5.67001e+00	
      1036.265	     5.71003e+00	
      1037.668	     5.90770e+00	
      1039.344	     6.13493e+00	
      1041.045	     6.36289e+00	
      1042.696	     6.58801e+00	
      1044.347	     6.81908e+00	
      1045.948	     7.04936e+00	
      1047.649	     7.29974e+00	
      1049.349	     7.55776e+00	
      1051.150	     7.84223e+00	
      1052.751	     8.10239e+00	
      1054.352	     8.36993e+00	
      1055.753	     8.61019e+00	
      1057.554	     8.92702e+00	
      1059.355	     9.25551e+00	
      1061.556	     9.66652e+00	
      1062.956	     9.93673e+00	
      1064.357	     1.02125e+01	
      1064.957	     1.03325e+01	
      1067.158	     1.07824e+01	
      1069.359	     1.12476e+01	
      1071.560	     1.17416e+01	
      1073.161	     1.21129e+01	
      1073.761	     1.22545e+01	
      1074.362	     1.23976e+01	
      1075.562	     1.26885e+01	
      1076.563	     1.29359e+01	
      1077.963	     1.32907e+01	
      1079.364	     1.36546e+01	
      1081.888	     1.43160e+01	
      1082.165	     1.43902e+01	
      1082.305	     1.44278e+01	
      1082.442	     1.44647e+01	
      1082.997	     1.46146e+01	
      1084.105	     1.49183e+01	
      1085.905	     1.54229e+01	
      1089.368	     1.64355e+01	
      1091.293	     1.70359e+01	
      1092.832	     1.75297e+01	
      1094.370	     1.80359e+01	
      1095.523	     1.84236e+01	
      1097.448	     1.90872e+01	
      1099.372	     1.97718e+01	
      1102.070	     2.07459e+01	
      1103.222	     2.11747e+01	
      1103.982	     2.14619e+01	
      1104.374	     2.16113e+01	
      1106.679	     2.25083e+01	
      1106.875	     2.25861e+01	
      1109.376	     2.35992e+01	
      1111.877	     2.47055e+01	
      1114.378	     2.58574e+01	
      1116.879	     2.70567e+01	
      1118.684	     2.79525e+01	
      1119.380	     2.83051e+01	
      1120.076	     2.86616e+01	
      1121.469	     2.93866e+01	
      1123.778	     3.06244e+01	
      1124.254	     3.08800e+01	
      1124.730	     3.11317e+01	
      1125.682	     3.16402e+01	
      1125.790	     3.16984e+01	
      1127.075	     3.23970e+01	
      1127.587	     3.26795e+01	
      1127.845	     3.28227e+01	
      1129.384	     3.36864e+01	
      1131.692	     3.50152e+01	
      1135.540	     3.73140e+01	
      1139.387	     3.97025e+01	
      1142.080	     4.14197e+01	
      1143.234	     4.21687e+01	
      1144.004	     4.26726e+01	
      1144.388	     4.29248e+01	
      1146.697	     4.44347e+01	
      1149.390	     4.61934e+01	
      1151.891	     4.77802e+01	
      1154.391	     4.93192e+01	
      1156.892	     5.07870e+01	
      1159.393	     5.21734e+01	
      1161.893	     5.34906e+01	
      1164.394	     5.47061e+01	
      1166.895	     5.58145e+01	
      1169.395	     5.67714e+01	
      1171.896	     5.76184e+01	
      1174.397	     5.85087e+01	
      1175.647	     5.90415e+01	
      1176.897	     5.96554e+01	
      1177.860	     6.01917e+01	
      1178.148	     6.03632e+01	
      1179.398	     6.11627e+01	
      1180.936	     6.22591e+01	
      1182.475	     6.34762e+01	
      1182.858	     6.37935e+01	
      1184.013	     6.47931e+01	
      1185.168	     6.58456e+01	
      1185.558	     6.62135e+01	
      1187.479	     6.80893e+01	
      1189.400	     7.00641e+01	
      1192.085	     7.29318e+01	
      1193.243	     7.41934e+01	
      1194.034	     7.50655e+01	
      1194.402	     7.54736e+01	
      1196.718	     7.80906e+01	
      1199.403	     8.12604e+01	
      1201.903	     8.42776e+01	
      1204.404	     8.72072e+01	
      1206.904	     9.00183e+01	
      1208.485	     9.16758e+01	
      1209.405	     9.25642e+01	
      1210.325	     9.33465e+01	
      1211.245	     9.39971e+01	
      1211.639	     9.42095e+01	
      1212.165	     9.44416e+01	
      1212.691	     9.45701e+01	
      1213.613	     9.47991e+01	
      1213.744	     9.48758e+01	
      1213.807	     9.49257e+01	
      1213.875	     9.49791e+01	
      1214.137	     9.52531e+01	
      1214.171	     9.52958e+01	
      1214.467	     9.57058e+01	
      1214.615	     9.59207e+01	
      1214.763	     9.61359e+01	
      1214.837	     9.62436e+01	
