# Koester WD models
# teff = 9750 K (value for the effective temperature for the model. Temperatures are given in K)
# logg = 8 log(cm/s2) (value for Log(G) for the model.)
#
#   WAVELENGTH	#           FLUX	
#   (ANGSTROM)	#  (ERG/CM2/S/A)	
##############	################	
       899.230	     1.63193e+02	
       901.025	     1.69603e+02	
       902.629	     1.75523e+02	
       904.235	     1.81625e+02	
       905.651	     1.87160e+02	
       907.446	     1.94393e+02	
       908.450	     1.98545e+02	
       909.241	     2.01870e+02	
       910.032	     2.05245e+02	
       911.193	     2.10290e+02	
       911.613	     2.12143e+02	
       912.034	     2.14011e+02	
       912.465	     2.15944e+02	
       912.875	     2.17852e+02	
       913.037	     2.18666e+02	
       913.241	     2.19455e+02	
       913.284	     2.19651e+02	
       913.478	     2.20539e+02	
       913.531	     2.20782e+02	
       913.755	     2.21807e+02	
       913.822	     2.22116e+02	
       914.080	     2.23310e+02	
       914.165	     2.23703e+02	
       914.499	     2.25258e+02	
       914.575	     2.25614e+02	
       915.071	     2.27939e+02	
       915.540	     2.31751e+02	
       915.609	     2.30486e+02	
       915.643	     2.30648e+02	
       915.677	     2.30810e+02	
       915.813	     2.33268e+02	
       915.949	     3.08034e+02	
       916.085	     3.50715e+02	
       916.221	     2.64397e+02	
       916.285	     2.37013e+02	
       916.357	     2.34075e+02	
       916.429	     2.34423e+02	
       916.574	     2.38547e+02	
       916.718	     3.57227e+02	
       916.862	     4.88059e+02	
       917.006	     4.41161e+02	
       917.150	     2.88106e+02	
       917.210	     2.49181e+02	
       917.294	     2.38635e+02	
       917.378	     2.39048e+02	
       917.547	     2.51033e+02	
       917.715	     4.35246e+02	
       917.883	     6.84566e+02	
       918.051	     7.17314e+02	
       918.219	     4.92492e+02	
       918.387	     2.81515e+02	
       918.417	     2.62592e+02	
       918.510	     2.44668e+02	
       918.556	     2.44898e+02	
       918.602	     2.45129e+02	
       918.786	     2.64651e+02	
       918.970	     4.89067e+02	
       919.057	     6.88298e+02	
       919.154	     9.00123e+02	
       919.251	     1.04800e+03	
       919.446	     1.19033e+03	
       919.640	     9.35111e+02	
       919.834	     5.11919e+02	
       919.841	     4.98564e+02	
       920.028	     2.72883e+02	
       920.215	     2.53358e+02	
       920.403	     2.74994e+02	
       920.590	     5.10339e+02	
       920.777	     1.00142e+03	
       920.964	     1.60465e+03	
       921.151	     1.95816e+03	
       921.339	     2.01090e+03	
       921.526	     1.75537e+03	
       921.713	     1.28876e+03	
       921.900	     7.91666e+02	
       922.087	     4.18397e+02	
       922.144	     3.45484e+02	
       922.274	     2.65706e+02	
       922.405	     2.64911e+02	
       922.535	     2.67114e+02	
       922.665	     3.49201e+02	
       922.760	     4.85373e+02	
       922.780	     5.21878e+02	
       922.795	     5.51155e+02	
       922.810	     5.81496e+02	
       922.860	     6.92727e+02	
       922.960	     9.52974e+02	
       923.060	     1.25160e+03	
       923.160	     1.57124e+03	
       923.260	     1.91199e+03	
       923.361	     2.24698e+03	
       923.461	     2.54973e+03	
       923.561	     2.78290e+03	
       923.661	     2.95908e+03	
       923.761	     3.06422e+03	
       923.861	     3.11515e+03	
       923.961	     3.10747e+03	
       924.061	     3.04217e+03	
       924.161	     2.91506e+03	
       924.261	     2.73487e+03	
       924.362	     2.51659e+03	
       924.462	     2.26681e+03	
       924.562	     1.99077e+03	
       924.662	     1.70207e+03	
       924.762	     1.40813e+03	
       924.862	     1.11851e+03	
       924.962	     8.50432e+02	
       925.062	     6.23496e+02	
       925.162	     4.45349e+02	
       925.262	     3.26534e+02	
       925.363	     2.81856e+02	
       925.400	     2.81465e+02	
       925.442	     2.81704e+02	
       925.463	     2.81823e+02	
       925.484	     2.81943e+02	
       925.568	     2.82421e+02	
       925.736	     3.59668e+02	
       925.904	     6.32180e+02	
       926.072	     1.05174e+03	
       926.112	     1.17113e+03	
       926.240	     1.56870e+03	
       926.369	     1.98292e+03	
       926.497	     2.39868e+03	
       926.625	     2.80422e+03	
       926.753	     3.19971e+03	
       926.881	     3.57651e+03	
       927.009	     3.90572e+03	
       927.137	     4.18177e+03	
       927.265	     4.38730e+03	
       927.394	     4.52930e+03	
       927.522	     4.61981e+03	
       927.650	     4.66115e+03	
       927.778	     4.65540e+03	
       927.886	     4.61305e+03	
       927.906	     4.60155e+03	
       928.034	     4.50024e+03	
       928.182	     4.30235e+03	
       928.331	     4.03955e+03	
       928.479	     3.72568e+03	
       928.627	     3.35783e+03	
       928.775	     2.94535e+03	
       928.923	     2.53840e+03	
       929.017	     2.26753e+03	
       929.053	     2.16110e+03	
       929.061	     2.13711e+03	
       929.071	     2.10708e+03	
       929.089	     2.05295e+03	
       929.161	     1.83161e+03	
       929.261	     1.52838e+03	
       929.381	     1.18544e+03	
       929.462	     9.64579e+02	
       929.543	     7.65267e+02	
       929.641	     5.60843e+02	
       929.655	     5.35280e+02	
       929.705	     4.54431e+02	
       929.769	     3.74607e+02	
       929.827	     3.27860e+02	
       929.883	     3.09033e+02	
       929.910	     3.08132e+02	
       929.939	     3.08291e+02	
       929.954	     3.08383e+02	
       929.968	     3.08469e+02	
       929.982	     3.08556e+02	
       929.996	     3.08642e+02	
       930.010	     3.08728e+02	
       930.024	     3.08814e+02	
       930.038	     3.08901e+02	
       930.052	     3.08987e+02	
       930.081	     3.09166e+02	
       930.137	     3.10603e+02	
       930.201	     3.35277e+02	
       930.247	     3.74051e+02	
       930.249	     3.76105e+02	
       930.251	     3.78182e+02	
       930.301	     4.39264e+02	
       930.326	     4.75392e+02	
       930.402	     6.11731e+02	
       930.478	     7.79115e+02	
       930.630	     1.18510e+03	
       930.633	     1.19390e+03	
       930.782	     1.64453e+03	
       930.931	     2.13040e+03	
       931.080	     2.60371e+03	
       931.229	     3.06472e+03	
       931.379	     3.54274e+03	
       931.528	     3.99774e+03	
       931.677	     4.42157e+03	
       931.788	     4.72455e+03	
       931.814	     4.79313e+03	
       931.826	     4.82454e+03	
       931.838	     4.85580e+03	
       931.888	     4.98401e+03	
       931.988	     5.23000e+03	
       932.088	     5.44645e+03	
       932.188	     5.64802e+03	
       932.288	     5.83786e+03	
       932.389	     6.00855e+03	
       932.489	     6.16274e+03	
       932.589	     6.30392e+03	
       932.689	     6.43131e+03	
       932.789	     6.53216e+03	
       932.889	     6.61572e+03	
       932.989	     6.68682e+03	
       933.189	     6.79222e+03	
       933.347	     6.83978e+03	
       933.375	     6.84484e+03	
       933.377	     6.84515e+03	
       933.389	     6.84694e+03	
       933.403	     6.84883e+03	
       933.432	     6.85081e+03	
       933.460	     6.85150e+03	
       933.542	     6.84704e+03	
       933.652	     6.82593e+03	
       933.762	     6.78769e+03	
       933.872	     6.73171e+03	
       933.982	     6.65443e+03	
       934.092	     6.55509e+03	
       934.202	     6.43697e+03	
       934.312	     6.29943e+03	
       934.422	     6.15114e+03	
       934.533	     5.99699e+03	
       934.602	     5.89240e+03	
       934.634	     5.84185e+03	
       934.643	     5.82740e+03	
       934.652	     5.81283e+03	
       934.702	     5.72964e+03	
       934.802	     5.55220e+03	
       935.002	     5.15991e+03	
       935.118	     4.91131e+03	
       935.174	     4.79539e+03	
       935.202	     4.73617e+03	
       935.230	     4.67617e+03	
       935.342	     4.42600e+03	
       935.454	     4.16428e+03	
       935.567	     3.88866e+03	
       935.679	     3.59926e+03	
       935.791	     3.29361e+03	
       935.903	     2.97121e+03	
       936.015	     2.63197e+03	
       936.076	     2.44505e+03	
       936.096	     2.38230e+03	
       936.110	     2.33826e+03	
       936.127	     2.28469e+03	
       936.144	     2.23047e+03	
       936.212	     2.01379e+03	
       936.222	     1.98189e+03	
       936.348	     1.58400e+03	
       936.372	     1.51028e+03	
       936.474	     1.20305e+03	
       936.486	     1.16795e+03	
       936.601	     8.56200e+02	
       936.715	     6.02312e+02	
       936.829	     4.28639e+02	
       936.887	     3.76909e+02	
       936.944	     3.55251e+02	
       936.973	     3.54299e+02	
       937.001	     3.54488e+02	
       937.015	     3.54585e+02	
       937.029	     3.54683e+02	
       937.043	     3.54780e+02	
       937.058	     3.54887e+02	
       937.072	     3.54984e+02	
       937.086	     3.55082e+02	
       937.101	     3.55185e+02	
       937.115	     3.55283e+02	
       937.143	     3.55477e+02	
       937.200	     3.57039e+02	
       937.314	     4.31548e+02	
       937.428	     6.08592e+02	
       937.493	     7.48023e+02	
       937.542	     8.68694e+02	
       937.593	     1.00685e+03	
       937.694	     1.30320e+03	
       937.794	     1.61943e+03	
       937.894	     1.94865e+03	
       937.950	     2.13724e+03	
       937.988	     2.26503e+03	
       937.994	     2.28529e+03	
       938.000	     2.30572e+03	
       938.050	     2.47355e+03	
       938.150	     2.80152e+03	
       938.250	     3.12702e+03	
       938.450	     3.74110e+03	
       938.650	     4.31322e+03	
       938.788	     4.68377e+03	
       938.809	     4.74013e+03	
       938.851	     4.85166e+03	
       938.914	     5.01395e+03	
       939.040	     5.32984e+03	
       939.155	     5.63168e+03	
       939.271	     5.92193e+03	
       939.387	     6.19789e+03	
       939.502	     6.46266e+03	
       939.618	     6.71676e+03	
       939.733	     6.96133e+03	
       939.965	     7.45500e+03	
       940.081	     7.68943e+03	
       940.196	     7.91521e+03	
       940.312	     8.12406e+03	
       940.427	     8.32422e+03	
       940.576	     8.57111e+03	
       940.658	     8.70139e+03	
       940.740	     8.82687e+03	
       940.905	     9.04502e+03	
       941.069	     9.24853e+03	
       941.233	     9.43662e+03	
       941.397	     9.60397e+03	
       941.561	     9.74676e+03	
       941.725	     9.87742e+03	
       941.889	     9.99507e+03	
       942.054	     1.01006e+04	
       942.218	     1.01939e+04	
       942.382	     1.02701e+04	
       942.546	     1.03313e+04	
       942.710	     1.03782e+04	
       942.874	     1.04103e+04	
       942.998	     1.04251e+04	
       943.030	     1.04275e+04	
       943.039	     1.04281e+04	
       943.048	     1.04286e+04	
       943.098	     1.04307e+04	
       943.198	     1.04307e+04	
       943.398	     1.03965e+04	
       943.598	     1.03342e+04	
       943.798	     1.02456e+04	
       943.998	     1.01310e+04	
       944.199	     9.98338e+03	
       944.399	     9.80761e+03	
       944.599	     9.60558e+03	
       944.691	     9.50457e+03	
       944.799	     9.38428e+03	
       944.845	     9.33358e+03	
       944.999	     9.15444e+03	
       945.153	     8.96164e+03	
       945.308	     8.75512e+03	
       945.462	     8.54362e+03	
       945.616	     8.32063e+03	
       945.770	     8.08203e+03	
       945.924	     7.83130e+03	
       946.232	     7.31391e+03	
       946.387	     7.04172e+03	
       946.541	     6.76313e+03	
       946.695	     6.46650e+03	
       946.849	     6.15746e+03	
       947.003	     5.82338e+03	
       947.108	     5.58318e+03	
       947.157	     5.46665e+03	
       947.208	     5.34206e+03	
       947.308	     5.08963e+03	
       947.509	     4.54526e+03	
       947.709	     3.94531e+03	
       947.735	     3.86362e+03	
       947.909	     3.27960e+03	
       948.083	     2.65610e+03	
       948.257	     2.01249e+03	
       948.317	     1.79641e+03	
       948.431	     1.39730e+03	
       948.546	     1.03515e+03	
       948.660	     7.40643e+02	
       948.727	     6.08335e+02	
       948.761	     5.54761e+02	
       948.771	     5.41064e+02	
       948.774	     5.37049e+02	
       948.777	     5.33094e+02	
       948.827	     4.79482e+02	
       948.835	     4.73001e+02	
       948.893	     4.47284e+02	
       948.922	     4.46335e+02	
       948.951	     4.46581e+02	
       948.966	     4.46706e+02	
       948.980	     4.46826e+02	
       948.994	     4.46945e+02	
       949.009	     4.47074e+02	
       949.023	     4.47193e+02	
       949.037	     4.47313e+02	
       949.052	     4.47441e+02	
       949.066	     4.47561e+02	
       949.095	     4.47806e+02	
       949.153	     4.49505e+02	
       949.230	     4.92715e+02	
       949.258	     5.23700e+02	
       949.269	     5.38054e+02	
       949.280	     5.53184e+02	
       949.330	     6.34715e+02	
       949.360	     6.94286e+02	
       949.430	     8.57535e+02	
       949.500	     1.05309e+03	
       949.640	     1.51879e+03	
       949.781	     2.03616e+03	
       949.795	     2.08920e+03	
       949.879	     2.41560e+03	
       949.921	     2.57887e+03	
       949.963	     2.74244e+03	
       950.131	     3.38262e+03	
       950.299	     3.99208e+03	
       950.467	     4.55591e+03	
       950.635	     5.08382e+03	
       950.719	     5.33468e+03	
       950.804	     5.57692e+03	
       950.888	     5.81226e+03	
       951.056	     6.25981e+03	
       951.224	     6.68232e+03	
       951.392	     7.08187e+03	
       951.560	     7.46826e+03	
       951.728	     7.83529e+03	
       951.896	     8.21127e+03	
       952.233	     8.93026e+03	
       952.400	     9.28378e+03	
       952.569	     9.62669e+03	
       952.738	     9.96029e+03	
       953.076	     1.06190e+04	
       953.415	     1.12548e+04	
       953.753	     1.18840e+04	
       954.091	     1.24741e+04	
       954.430	     1.30279e+04	
       954.599	     1.32962e+04	
       954.768	     1.35594e+04	
       954.875	     1.37144e+04	
       954.937	     1.37963e+04	
       955.106	     1.40161e+04	
       955.445	     1.44403e+04	
       956.014	     1.51006e+04	
       956.584	     1.56945e+04	
       957.153	     1.62458e+04	
       957.722	     1.67460e+04	
       958.292	     1.71887e+04	
       958.434	     1.72898e+04	
       958.861	     1.75675e+04	
       959.289	     1.78023e+04	
       959.716	     1.79922e+04	
       959.857	     1.80447e+04	
       960.144	     1.81358e+04	
       960.430	     1.82042e+04	
       961.002	     1.82764e+04	
       961.575	     1.82643e+04	
       962.147	     1.81721e+04	
       962.720	     1.80058e+04	
       963.292	     1.77685e+04	
       963.498	     1.76678e+04	
       963.865	     1.74710e+04	
       964.231	     1.72515e+04	
       964.597	     1.70091e+04	
       964.964	     1.67446e+04	
       965.330	     1.64629e+04	
       965.696	     1.61533e+04	
       966.062	     1.58237e+04	
       966.429	     1.54675e+04	
       966.795	     1.50854e+04	
       967.161	     1.46705e+04	
       967.528	     1.42126e+04	
       967.756	     1.39040e+04	
       967.894	     1.37088e+04	
       968.032	     1.35057e+04	
       968.308	     1.30659e+04	
       968.584	     1.25888e+04	
       968.861	     1.20661e+04	
       968.977	     1.18311e+04	
       969.137	     1.14906e+04	
       969.297	     1.11258e+04	
       969.457	     1.07318e+04	
       969.617	     1.03106e+04	
       969.628	     1.02808e+04	
       969.777	     9.85373e+03	
       969.927	     9.39041e+03	
       970.076	     8.89061e+03	
       970.225	     8.34281e+03	
       970.374	     7.74516e+03	
       970.523	     7.09098e+03	
       970.672	     6.37036e+03	
       970.769	     5.86011e+03	
       970.821	     5.57224e+03	
       970.874	     5.27461e+03	
       970.979	     4.65238e+03	
       971.085	     3.99689e+03	
       971.191	     3.31108e+03	
       971.245	     2.95660e+03	
       971.296	     2.61716e+03	
       971.348	     2.28196e+03	
       971.451	     1.65370e+03	
       971.525	     1.27155e+03	
       971.555	     1.13666e+03	
       971.585	     1.01754e+03	
       971.587	     1.00956e+03	
       971.644	     8.29302e+02	
       971.645	     8.26537e+02	
       971.703	     7.14134e+02	
       971.732	     6.89089e+02	
       971.762	     6.82030e+02	
       971.778	     6.81911e+02	
       971.792	     6.82081e+02	
       971.806	     6.82253e+02	
       971.821	     6.82439e+02	
       971.827	     6.82511e+02	
       971.833	     6.82586e+02	
       971.836	     6.82624e+02	
       971.839	     6.82662e+02	
       971.851	     6.82809e+02	
       971.866	     6.82995e+02	
       971.880	     6.83164e+02	
       971.910	     6.83633e+02	
       971.969	     7.10474e+02	
       972.037	     8.42921e+02	
       972.087	     1.00370e+03	
       972.137	     1.20919e+03	
       972.150	     1.26965e+03	
       972.237	     1.73275e+03	
       972.324	     2.26982e+03	
       972.499	     3.41764e+03	
       972.548	     3.73796e+03	
       972.673	     4.52550e+03	
       972.798	     5.26085e+03	
       972.923	     5.93595e+03	
       973.048	     6.55745e+03	
       973.173	     7.12636e+03	
       973.298	     7.64956e+03	
       973.423	     8.14093e+03	
       973.548	     8.59876e+03	
       973.601	     8.78361e+03	
       973.673	     9.02834e+03	
       973.746	     9.26544e+03	
       973.890	     9.71494e+03	
       974.034	     1.01364e+04	
       974.178	     1.05339e+04	
       974.322	     1.09148e+04	
       974.466	     1.12805e+04	
       974.610	     1.16407e+04	
       974.733	     1.19203e+04	
       974.754	     1.19671e+04	
       974.898	     1.22837e+04	
       974.959	     1.24171e+04	
       975.187	     1.29005e+04	
       975.413	     1.33445e+04	
       975.640	     1.37526e+04	
       976.093	     1.45405e+04	
       976.509	     1.52264e+04	
       976.547	     1.52894e+04	
       977.000	     1.60624e+04	
       977.907	     1.75884e+04	
       978.606	     1.87039e+04	
       979.305	     2.00301e+04	
       979.654	     2.07017e+04	
       979.829	     2.10701e+04	
       980.003	     2.14457e+04	
       980.178	     2.17390e+04	
       980.354	     2.20424e+04	
       980.528	     2.23574e+04	
       980.703	     2.26657e+04	
       981.052	     2.31864e+04	
       981.401	     2.37146e+04	
       982.101	     2.47413e+04	
       983.075	     2.61179e+04	
       983.499	     2.67434e+04	
       983.923	     2.74055e+04	
       984.772	     2.86872e+04	
       986.320	     3.09396e+04	
       986.469	     3.11561e+04	
       986.618	     3.13740e+04	
       986.917	     3.17326e+04	
       987.215	     3.20122e+04	
       987.513	     3.22830e+04	
       987.811	     3.25356e+04	
       988.109	     3.27794e+04	
       988.408	     3.31473e+04	
       988.706	     3.35227e+04	
       989.004	     3.38350e+04	
       989.262	     3.40706e+04	
       989.292	     3.40976e+04	
       989.302	     3.41067e+04	
       989.312	     3.41155e+04	
       989.362	     3.41604e+04	
       989.462	     3.42496e+04	
       989.662	     3.43320e+04	
       989.863	     3.43863e+04	
       990.263	     3.45022e+04	
       990.663	     3.47052e+04	
       991.064	     3.50124e+04	
       991.464	     3.54566e+04	
       991.864	     3.60539e+04	
       992.064	     3.63774e+04	
       992.264	     3.67120e+04	
       992.464	     3.71462e+04	
       992.665	     3.75954e+04	
       993.065	     3.85558e+04	
       993.823	     4.03915e+04	
       993.851	     4.04392e+04	
       993.865	     4.04634e+04	
       993.880	     4.04873e+04	
       993.936	     4.05834e+04	
       994.048	     4.07769e+04	
       994.272	     4.11677e+04	
       994.496	     4.13817e+04	
       994.720	     4.15205e+04	
       995.168	     4.18378e+04	
       995.393	     4.20430e+04	
       995.617	     4.22441e+04	
       995.841	     4.25899e+04	
       996.065	     4.30825e+04	
