# Koester WD models
# teff = 10250 K (value for the effective temperature for the model. Temperatures are given in K)
# logg = 8.75 log(cm/s2) (value for Log(G) for the model.)
#
#   WAVELENGTH	#           FLUX	
#   (ANGSTROM)	#  (ERG/CM2/S/A)	
##############	################	
       899.230	     5.42135e+02	
       899.723	     5.47564e+02	
       901.980	     5.72957e+02	
       904.235	     5.99375e+02	
       906.491	     6.26851e+02	
       908.253	     6.49072e+02	
       908.450	     6.51595e+02	
       908.747	     6.55421e+02	
       909.241	     6.61827e+02	
       910.032	     6.72194e+02	
       911.193	     6.87679e+02	
       911.613	     6.93362e+02	
       912.034	     6.99086e+02	
       912.465	     7.05630e+02	
       912.670	     7.09208e+02	
       912.875	     7.13434e+02	
       912.977	     7.15802e+02	
       913.080	     7.17493e+02	
       913.182	     7.16575e+02	
       913.284	     7.16786e+02	
       913.361	     7.18250e+02	
       913.446	     7.19070e+02	
       913.488	     7.19324e+02	
       913.531	     7.19827e+02	
       913.581	     7.20691e+02	
       913.702	     7.23119e+02	
       913.822	     7.23829e+02	
       913.942	     7.27159e+02	
       913.959	     7.28312e+02	
       914.062	     7.27725e+02	
       914.165	     7.28652e+02	
       914.167	     7.28680e+02	
       914.268	     7.30844e+02	
       914.371	     7.42544e+02	
       914.473	     7.33370e+02	
       914.575	     7.34486e+02	
       914.678	     7.36364e+02	
       914.780	     7.62446e+02	
       914.882	     7.56885e+02	
       914.897	     7.51931e+02	
       914.984	     7.40389e+02	
       915.071	     7.41582e+02	
       915.245	     7.61299e+02	
       915.419	     8.21168e+02	
       915.540	     7.51227e+02	
       915.544	     7.50574e+02	
       915.594	     7.49141e+02	
       915.609	     7.49352e+02	
       915.643	     7.49845e+02	
       915.677	     7.50338e+02	
       915.813	     7.55515e+02	
       915.949	     8.87440e+02	
       916.085	     9.54548e+02	
       916.221	     8.08621e+02	
       916.285	     7.64340e+02	
       916.357	     7.60287e+02	
       916.429	     7.61346e+02	
       916.574	     7.68833e+02	
       916.718	     9.67507e+02	
       916.862	     1.18998e+03	
       917.006	     1.13053e+03	
       917.150	     8.61412e+02	
       917.210	     7.90893e+02	
       917.294	     7.74170e+02	
       917.378	     7.75424e+02	
       917.547	     7.96551e+02	
       917.715	     1.14594e+03	
       917.883	     1.57895e+03	
       918.051	     1.63225e+03	
       918.219	     1.28661e+03	
       918.387	     8.64218e+02	
       918.417	     8.24715e+02	
       918.510	     7.92508e+02	
       918.556	     7.93205e+02	
       918.602	     7.93906e+02	
       918.786	     8.31002e+02	
       918.970	     1.31575e+03	
       919.057	     1.66836e+03	
       919.154	     2.04472e+03	
       919.251	     2.32996e+03	
       919.446	     2.59159e+03	
       919.640	     2.21000e+03	
       919.834	     1.40622e+03	
       919.841	     1.37833e+03	
       920.028	     8.56687e+02	
       920.215	     8.18872e+02	
       920.403	     8.62933e+02	
       920.590	     1.41692e+03	
       920.777	     2.42149e+03	
       920.964	     3.43508e+03	
       921.151	     4.01775e+03	
       921.339	     4.18297e+03	
       921.526	     3.83365e+03	
       921.713	     3.00739e+03	
       921.900	     2.03153e+03	
       922.087	     1.20417e+03	
       922.144	     1.03405e+03	
       922.274	     8.54196e+02	
       922.405	     8.53835e+02	
       922.535	     8.58437e+02	
       922.665	     1.04442e+03	
       922.760	     1.36250e+03	
       922.780	     1.44627e+03	
       922.795	     1.51236e+03	
       922.810	     1.58075e+03	
       922.860	     1.82570e+03	
       922.960	     2.39246e+03	
       923.060	     3.00955e+03	
       923.160	     3.69388e+03	
       923.260	     4.39729e+03	
       923.361	     5.03915e+03	
       923.461	     5.58635e+03	
       923.561	     5.97741e+03	
       923.661	     6.27411e+03	
       923.761	     6.47796e+03	
       923.861	     6.59515e+03	
       923.961	     6.61673e+03	
       924.061	     6.54111e+03	
       924.161	     6.35246e+03	
       924.261	     6.04867e+03	
       924.362	     5.63674e+03	
       924.462	     5.15102e+03	
       924.562	     4.61101e+03	
       924.662	     4.01863e+03	
       924.762	     3.39524e+03	
       924.862	     2.78989e+03	
       924.962	     2.21339e+03	
       925.062	     1.70013e+03	
       925.162	     1.28352e+03	
       925.262	     1.00386e+03	
       925.363	     9.04276e+02	
       925.400	     9.03770e+02	
       925.442	     9.04487e+02	
       925.463	     9.04848e+02	
       925.484	     9.05206e+02	
       925.568	     9.06648e+02	
       925.736	     1.08358e+03	
       925.904	     1.72278e+03	
       926.072	     2.65946e+03	
       926.112	     2.90784e+03	
       926.240	     3.74996e+03	
       926.369	     4.63234e+03	
       926.497	     5.49477e+03	
       926.625	     6.35632e+03	
       926.753	     7.17958e+03	
       926.881	     7.90855e+03	
       927.009	     8.49801e+03	
       927.137	     8.96372e+03	
       927.265	     9.30191e+03	
       927.394	     9.54523e+03	
       927.522	     9.71318e+03	
       927.650	     9.80972e+03	
       927.778	     9.82241e+03	
       927.906	     9.74334e+03	
       928.034	     9.57165e+03	
       928.102	     9.43335e+03	
       928.142	     9.33842e+03	
       928.162	     9.28708e+03	
       928.182	     9.23298e+03	
       928.262	     9.00908e+03	
       928.423	     8.44005e+03	
       928.583	     7.72216e+03	
       928.743	     6.90019e+03	
       928.903	     5.98558e+03	
       928.985	     5.49172e+03	
       929.037	     5.17062e+03	
       929.063	     5.00710e+03	
       929.089	     4.84072e+03	
       929.125	     4.60667e+03	
       929.193	     4.15724e+03	
       929.261	     3.71346e+03	
       929.398	     2.87091e+03	
       929.493	     2.32007e+03	
       929.525	     2.14514e+03	
       929.534	     2.09672e+03	
       929.543	     2.04896e+03	
       929.593	     1.79880e+03	
       929.617	     1.68643e+03	
       929.655	     1.52127e+03	
       929.693	     1.37377e+03	
       929.769	     1.13652e+03	
       929.827	     1.02544e+03	
       929.883	     9.85540e+02	
       929.910	     9.83796e+02	
       929.939	     9.84292e+02	
       929.954	     9.84569e+02	
       929.968	     9.84826e+02	
       929.982	     9.85084e+02	
       929.996	     9.85342e+02	
       930.010	     9.85602e+02	
       930.024	     9.85860e+02	
       930.038	     9.86118e+02	
       930.052	     9.86375e+02	
       930.081	     9.86912e+02	
       930.137	     9.90230e+02	
       930.201	     1.04453e+03	
       930.247	     1.13652e+03	
       930.249	     1.14158e+03	
       930.251	     1.14669e+03	
       930.301	     1.29556e+03	
       930.326	     1.38228e+03	
       930.402	     1.70133e+03	
       930.478	     2.08386e+03	
       930.630	     2.97891e+03	
       930.633	     2.99770e+03	
       930.782	     3.97210e+03	
       930.931	     5.01335e+03	
       931.080	     6.01062e+03	
       931.229	     6.99149e+03	
       931.379	     7.93544e+03	
       931.516	     8.76310e+03	
       931.528	     8.83714e+03	
       931.677	     9.73410e+03	
       931.838	     1.06797e+04	
       931.999	     1.15498e+04	
       932.160	     1.23111e+04	
       932.321	     1.29809e+04	
       932.483	     1.34722e+04	
       932.644	     1.38914e+04	
       932.805	     1.42313e+04	
       932.966	     1.44953e+04	
       933.127	     1.47022e+04	
       933.173	     1.47508e+04	
       933.288	     1.48518e+04	
       933.403	     1.49230e+04	
       933.450	     1.49381e+04	
       933.496	     1.49466e+04	
       933.519	     1.49486e+04	
       933.542	     1.49491e+04	
       933.580	     1.49475e+04	
       933.616	     1.49420e+04	
       933.634	     1.49379e+04	
       933.652	     1.49327e+04	
       933.724	     1.49070e+04	
       933.868	     1.48037e+04	
       934.012	     1.46182e+04	
       934.156	     1.43505e+04	
       934.300	     1.40069e+04	
       934.444	     1.35972e+04	
       934.526	     1.33423e+04	
       934.589	     1.31293e+04	
       934.652	     1.29019e+04	
       934.778	     1.24153e+04	
       934.904	     1.19211e+04	
       935.030	     1.13794e+04	
       935.082	     1.11414e+04	
       935.156	     1.08074e+04	
       935.230	     1.04624e+04	
       935.378	     9.72929e+03	
       935.527	     8.96139e+03	
       935.675	     8.15039e+03	
       935.823	     7.29321e+03	
       935.971	     6.36512e+03	
       936.044	     5.89994e+03	
       936.094	     5.57919e+03	
       936.119	     5.41563e+03	
       936.144	     5.25064e+03	
       936.244	     4.58211e+03	
       936.288	     4.28246e+03	
       936.444	     3.25287e+03	
       936.601	     2.29027e+03	
       936.685	     1.84737e+03	
       936.714	     1.71256e+03	
       936.757	     1.53192e+03	
       936.829	     1.29238e+03	
       936.887	     1.16999e+03	
       936.944	     1.12346e+03	
       936.973	     1.12138e+03	
       937.001	     1.12195e+03	
       937.015	     1.12224e+03	
       937.029	     1.12253e+03	
       937.043	     1.12282e+03	
       937.058	     1.12313e+03	
       937.072	     1.12342e+03	
       937.086	     1.12371e+03	
       937.101	     1.12401e+03	
       937.115	     1.12430e+03	
       937.143	     1.12488e+03	
       937.200	     1.12876e+03	
       937.314	     1.30105e+03	
       937.428	     1.72553e+03	
       937.493	     2.04908e+03	
       937.542	     2.32251e+03	
       937.593	     2.63211e+03	
       937.694	     3.28328e+03	
       937.794	     3.96767e+03	
       937.894	     4.66982e+03	
       937.950	     5.06799e+03	
       937.988	     5.33442e+03	
       937.994	     5.37627e+03	
       938.000	     5.41834e+03	
       938.050	     5.76708e+03	
       938.150	     6.44705e+03	
       938.250	     7.13704e+03	
       938.450	     8.43295e+03	
       938.650	     9.65443e+03	
       938.788	     1.04589e+04	
       938.809	     1.05820e+04	
       938.851	     1.08256e+04	
       938.914	     1.11838e+04	
       939.040	     1.18795e+04	
       939.271	     1.31373e+04	
       939.502	     1.43637e+04	
       939.733	     1.55546e+04	
       939.965	     1.67193e+04	
       940.081	     1.72721e+04	
       940.196	     1.78072e+04	
       940.312	     1.82947e+04	
       940.427	     1.87524e+04	
       940.543	     1.91858e+04	
       940.576	     1.93073e+04	
       940.658	     1.95977e+04	
       940.740	     1.98771e+04	
       940.905	     2.03556e+04	
       941.069	     2.08017e+04	
       941.233	     2.12161e+04	
       941.397	     2.15950e+04	
       941.561	     2.19348e+04	
       941.725	     2.22464e+04	
       941.889	     2.25300e+04	
       942.054	     2.27832e+04	
       942.218	     2.30061e+04	
       942.382	     2.31954e+04	
       942.546	     2.33519e+04	
       942.710	     2.34761e+04	
       942.874	     2.35670e+04	
       942.998	     2.36144e+04	
       943.030	     2.36236e+04	
       943.039	     2.36259e+04	
       943.048	     2.36281e+04	
       943.098	     2.36382e+04	
       943.198	     2.36488e+04	
       943.398	     2.35956e+04	
       943.598	     2.34773e+04	
       943.798	     2.32959e+04	
       943.998	     2.30537e+04	
       944.199	     2.26976e+04	
       944.399	     2.22598e+04	
       944.599	     2.17573e+04	
       944.691	     2.15045e+04	
       944.799	     2.11947e+04	
       944.845	     2.10610e+04	
       944.999	     2.05942e+04	
       945.153	     2.00984e+04	
       945.308	     1.95712e+04	
       945.616	     1.85219e+04	
       945.924	     1.73970e+04	
       946.078	     1.68271e+04	
       946.232	     1.62207e+04	
       946.387	     1.55862e+04	
       946.541	     1.49322e+04	
       946.695	     1.42512e+04	
       946.849	     1.35741e+04	
       947.003	     1.28575e+04	
       947.108	     1.23463e+04	
       947.157	     1.20990e+04	
       947.208	     1.18359e+04	
       947.308	     1.13059e+04	
       947.509	     1.01640e+04	
       947.709	     8.90704e+03	
       947.735	     8.73473e+03	
       947.909	     7.51912e+03	
       948.083	     6.22595e+03	
       948.257	     4.87610e+03	
       948.317	     4.41573e+03	
       948.431	     3.55628e+03	
       948.546	     2.75779e+03	
       948.660	     2.08622e+03	
       948.727	     1.77292e+03	
       948.761	     1.64490e+03	
       948.771	     1.61149e+03	
       948.774	     1.60176e+03	
       948.777	     1.59217e+03	
       948.827	     1.46636e+03	
       948.835	     1.45078e+03	
       948.893	     1.39480e+03	
       948.922	     1.39237e+03	
       948.951	     1.39309e+03	
       948.966	     1.39346e+03	
       948.980	     1.39381e+03	
       948.994	     1.39416e+03	
       949.009	     1.39453e+03	
       949.023	     1.39488e+03	
       949.037	     1.39523e+03	
       949.052	     1.39561e+03	
       949.066	     1.39595e+03	
       949.095	     1.39668e+03	
       949.153	     1.40129e+03	
       949.230	     1.50005e+03	
       949.258	     1.57218e+03	
       949.269	     1.60605e+03	
       949.280	     1.64282e+03	
       949.330	     1.83888e+03	
       949.360	     1.97970e+03	
       949.430	     2.35983e+03	
       949.500	     2.80291e+03	
       949.640	     3.82637e+03	
       949.781	     4.93569e+03	
       949.795	     5.04823e+03	
       949.879	     5.73570e+03	
       949.921	     6.07851e+03	
       949.963	     6.41777e+03	
       950.131	     7.74535e+03	
       950.299	     9.01270e+03	
       950.467	     1.01915e+04	
       950.635	     1.12960e+04	
       950.719	     1.18231e+04	
       950.804	     1.23294e+04	
       950.888	     1.28239e+04	
       951.056	     1.37717e+04	
       951.224	     1.46763e+04	
       951.392	     1.55533e+04	
       951.728	     1.72894e+04	
       952.065	     1.89460e+04	
       952.401	     2.05567e+04	
       952.738	     2.21464e+04	
       953.075	     2.37794e+04	
       953.413	     2.53722e+04	
       953.750	     2.69225e+04	
       953.918	     2.76810e+04	
       954.087	     2.83748e+04	
       954.256	     2.89988e+04	
       954.425	     2.96053e+04	
       954.593	     3.01942e+04	
       954.762	     3.07672e+04	
       954.859	     3.10815e+04	
       955.099	     3.17929e+04	
       955.437	     3.27599e+04	
       956.014	     3.43206e+04	
       956.592	     3.57476e+04	
       957.169	     3.70673e+04	
       957.747	     3.82665e+04	
       958.324	     3.93186e+04	
       958.514	     3.96293e+04	
       958.901	     4.02017e+04	
       959.289	     4.06877e+04	
       959.676	     4.10817e+04	
       959.697	     4.11005e+04	
       960.063	     4.13845e+04	
       960.430	     4.15812e+04	
       960.796	     4.16927e+04	
       961.162	     4.17172e+04	
       961.529	     4.16607e+04	
       961.895	     4.15234e+04	
       962.261	     4.13088e+04	
       962.628	     4.10210e+04	
       962.994	     4.06610e+04	
       963.222	     4.04050e+04	
       963.360	     4.02394e+04	
       963.727	     3.97575e+04	
       964.231	     3.90044e+04	
       964.735	     3.81458e+04	
       965.240	     3.71886e+04	
       965.744	     3.61223e+04	
       966.249	     3.49502e+04	
       966.753	     3.36628e+04	
       967.005	     3.29575e+04	
       967.257	     3.22189e+04	
       967.492	     3.14960e+04	
       967.510	     3.14385e+04	
       967.762	     3.06122e+04	
       968.032	     2.96675e+04	
       968.302	     2.86462e+04	
       968.572	     2.75529e+04	
       968.843	     2.63639e+04	
       968.929	     2.59661e+04	
       969.113	     2.50763e+04	
       969.297	     2.41275e+04	
       969.481	     2.31097e+04	
       969.665	     2.20150e+04	
       969.772	     2.13343e+04	
       969.849	     2.08288e+04	
       969.927	     2.03088e+04	
       970.081	     1.92028e+04	
       970.235	     1.80104e+04	
       970.389	     1.67210e+04	
       970.543	     1.53231e+04	
       970.697	     1.37803e+04	
       970.782	     1.28589e+04	
       970.828	     1.23433e+04	
       970.851	     1.20817e+04	
       970.874	     1.18154e+04	
       970.966	     1.07125e+04	
       971.150	     8.32993e+03	
       971.290	     6.41573e+03	
       971.319	     6.01392e+03	
       971.333	     5.81430e+03	
       971.348	     5.61513e+03	
       971.406	     4.83780e+03	
       971.462	     4.13826e+03	
       971.467	     4.07568e+03	
       971.523	     3.43684e+03	
       971.585	     2.84052e+03	
       971.644	     2.40291e+03	
       971.703	     2.13871e+03	
       971.732	     2.08460e+03	
       971.762	     2.07116e+03	
       971.778	     2.07119e+03	
       971.792	     2.07167e+03	
       971.806	     2.07216e+03	
       971.821	     2.07269e+03	
       971.827	     2.07290e+03	
       971.833	     2.07311e+03	
       971.836	     2.07322e+03	
       971.839	     2.07332e+03	
       971.851	     2.07374e+03	
       971.866	     2.07427e+03	
       971.880	     2.07476e+03	
       971.910	     2.07599e+03	
       971.969	     2.13250e+03	
       972.037	     2.43730e+03	
       972.087	     2.81089e+03	
       972.137	     3.28265e+03	
       972.150	     3.42025e+03	
       972.237	     4.44498e+03	
       972.324	     5.59712e+03	
       972.499	     8.00286e+03	
       972.548	     8.66850e+03	
       972.673	     1.02920e+04	
       972.798	     1.17966e+04	
       972.923	     1.31752e+04	
       973.048	     1.44347e+04	
       973.173	     1.55941e+04	
       973.298	     1.66610e+04	
       973.423	     1.76653e+04	
       973.548	     1.86118e+04	
       973.601	     1.89955e+04	
       973.673	     1.95042e+04	
       973.746	     2.00000e+04	
       973.890	     2.09570e+04	
       974.034	     2.18526e+04	
       974.178	     2.27013e+04	
       974.466	     2.43358e+04	
       974.754	     2.58498e+04	
       975.022	     2.71450e+04	
       975.043	     2.72468e+04	
       975.176	     2.78907e+04	
       975.331	     2.86016e+04	
       975.485	     2.92397e+04	
       975.640	     2.98720e+04	
       975.949	     3.11252e+04	
       976.259	     3.22940e+04	
       976.568	     3.34712e+04	
       977.186	     3.59668e+04	
       977.541	     3.73469e+04	
       977.805	     3.83636e+04	
       977.983	     3.90676e+04	
       978.423	     4.06893e+04	
       978.643	     4.15529e+04	
       978.865	     4.24759e+04	
       979.085	     4.34614e+04	
       979.305	     4.45245e+04	
       979.745	     4.65446e+04	
       980.187	     4.85577e+04	
       980.407	     4.94546e+04	
       980.627	     5.03962e+04	
       980.848	     5.11769e+04	
       981.068	     5.19418e+04	
       981.288	     5.27235e+04	
       981.509	     5.34746e+04	
       981.950	     5.49923e+04	
       982.831	     5.78606e+04	
       983.503	     6.01006e+04	
       983.713	     6.08413e+04	
       983.750	     6.09733e+04	
       983.923	     6.15969e+04	
       984.344	     6.30439e+04	
       985.184	     6.58274e+04	
       985.271	     6.61079e+04	
       985.945	     6.83425e+04	
       986.281	     6.94496e+04	
       986.618	     7.05441e+04	
       986.955	     7.14213e+04	
       987.292	     7.21118e+04	
       987.628	     7.27678e+04	
       987.965	     7.33816e+04	
       988.302	     7.41557e+04	
       988.639	     7.50941e+04	
       988.975	     7.59116e+04	
       989.312	     7.65864e+04	
       989.649	     7.70435e+04	
       989.986	     7.72194e+04	
       990.323	     7.74519e+04	
       990.659	     7.78141e+04	
       990.996	     7.83196e+04	
       991.333	     7.91468e+04	
       991.670	     8.00896e+04	
       992.006	     8.13038e+04	
       992.343	     8.26343e+04	
       992.680	     8.43037e+04	
       992.827	     8.50662e+04	
       993.017	     8.60866e+04	
       993.353	     8.79637e+04	
       993.616	     8.95357e+04	
       993.880	     9.06004e+04	
       994.143	     9.15956e+04	
       994.274	     9.20999e+04	
