# Koester WD models
# teff = 10500 K (value for the effective temperature for the model. Temperatures are given in K)
# logg = 8.25 log(cm/s2) (value for Log(G) for the model.)
#
#   WAVELENGTH	#           FLUX	
#   (ANGSTROM)	#  (ERG/CM2/S/A)	
##############	################	
       899.230	     6.63404e+02	
       899.723	     6.69970e+02	
       901.980	     7.00688e+02	
       904.235	     7.32629e+02	
       906.491	     7.65832e+02	
       908.253	     7.92671e+02	
       908.450	     7.95721e+02	
       908.747	     8.00340e+02	
       909.241	     8.08074e+02	
       910.032	     8.20593e+02	
       911.193	     8.39283e+02	
       911.613	     8.46141e+02	
       912.034	     8.53046e+02	
       912.465	     8.60642e+02	
       912.670	     8.64994e+02	
       912.875	     8.70180e+02	
       912.977	     8.73174e+02	
       913.080	     8.75490e+02	
       913.182	     8.73419e+02	
       913.284	     8.73906e+02	
       913.361	     8.75540e+02	
       913.386	     8.76316e+02	
       913.446	     8.76806e+02	
       913.488	     8.77315e+02	
       913.531	     8.78003e+02	
       913.581	     8.78908e+02	
       913.702	     8.82238e+02	
       913.822	     8.82916e+02	
       913.942	     8.87465e+02	
       913.959	     8.89919e+02	
       914.062	     8.87610e+02	
       914.165	     8.88766e+02	
       914.167	     8.88801e+02	
       914.268	     8.91402e+02	
       914.371	     9.18485e+02	
       914.473	     8.94537e+02	
       914.575	     8.95803e+02	
       914.678	     8.98147e+02	
       914.780	     9.57366e+02	
       914.882	     9.44247e+02	
       914.897	     9.32126e+02	
       914.984	     9.02922e+02	
       915.071	     9.04361e+02	
       915.245	     9.48384e+02	
       915.419	     1.07497e+03	
       915.540	     9.20298e+02	
       915.544	     9.18699e+02	
       915.594	     9.13475e+02	
       915.609	     9.13726e+02	
       915.643	     9.14323e+02	
       915.677	     9.14920e+02	
       915.813	     9.25717e+02	
       915.949	     1.20981e+03	
       916.085	     1.35509e+03	
       916.221	     1.04144e+03	
       916.285	     9.39644e+02	
       916.357	     9.26914e+02	
       916.429	     9.28190e+02	
       916.574	     9.45406e+02	
       916.718	     1.37419e+03	
       916.862	     1.84036e+03	
       917.006	     1.69929e+03	
       917.150	     1.13855e+03	
       917.210	     9.86847e+02	
       917.294	     9.43650e+02	
       917.378	     9.45161e+02	
       917.547	     9.94160e+02	
       917.715	     1.70942e+03	
       917.883	     2.61830e+03	
       918.051	     2.72377e+03	
       918.219	     1.97548e+03	
       918.387	     1.12171e+03	
       918.417	     1.04187e+03	
       918.510	     9.65788e+02	
       918.556	     9.66586e+02	
       918.602	     9.67435e+02	
       918.786	     1.04983e+03	
       918.970	     2.00399e+03	
       919.057	     2.73373e+03	
       919.154	     3.48707e+03	
       919.251	     4.03908e+03	
       919.446	     4.60432e+03	
       919.640	     3.79859e+03	
       919.834	     2.15166e+03	
       919.841	     2.09594e+03	
       920.028	     1.08393e+03	
       920.215	     9.97512e+02	
       920.403	     1.09176e+03	
       920.590	     2.15371e+03	
       920.777	     4.14436e+03	
       920.964	     6.24153e+03	
       921.151	     7.44671e+03	
       921.339	     7.73294e+03	
       921.526	     6.92665e+03	
       921.713	     5.22805e+03	
       921.900	     3.31802e+03	
       922.087	     1.72449e+03	
       922.144	     1.40014e+03	
       922.274	     1.04442e+03	
       922.405	     1.03962e+03	
       922.535	     1.04955e+03	
       922.665	     1.41411e+03	
       922.760	     2.02045e+03	
       922.780	     2.18059e+03	
       922.795	     2.30664e+03	
       922.810	     2.43711e+03	
       922.860	     2.90715e+03	
       922.960	     3.96758e+03	
       923.060	     5.10251e+03	
       923.160	     6.31671e+03	
       923.260	     7.55792e+03	
       923.361	     8.69068e+03	
       923.461	     9.64456e+03	
       923.561	     1.03176e+04	
       923.661	     1.08106e+04	
       923.761	     1.11286e+04	
       923.861	     1.12916e+04	
       923.961	     1.12874e+04	
       924.061	     1.11161e+04	
       924.161	     1.07577e+04	
       924.261	     1.02136e+04	
       924.362	     9.50662e+03	
       924.462	     8.68330e+03	
       924.562	     7.76913e+03	
       924.662	     6.76545e+03	
       924.762	     5.70139e+03	
       924.862	     4.63212e+03	
       925.062	     2.62671e+03	
       925.262	     1.30477e+03	
       925.400	     1.09971e+03	
       925.442	     1.10058e+03	
       925.463	     1.10101e+03	
       925.484	     1.10145e+03	
       925.568	     1.10318e+03	
       925.736	     1.44912e+03	
       925.904	     2.65939e+03	
       926.072	     4.38466e+03	
       926.112	     4.83014e+03	
       926.240	     6.29217e+03	
       926.369	     7.77393e+03	
       926.497	     9.19708e+03	
       926.625	     1.05996e+04	
       926.753	     1.19471e+04	
       926.881	     1.31565e+04	
       927.009	     1.41590e+04	
       927.137	     1.49573e+04	
       927.265	     1.55351e+04	
       927.394	     1.59474e+04	
       927.522	     1.62291e+04	
       927.650	     1.63840e+04	
       927.778	     1.63937e+04	
       927.906	     1.62489e+04	
       928.034	     1.59508e+04	
       928.102	     1.57146e+04	
       928.142	     1.55522e+04	
       928.162	     1.54650e+04	
       928.182	     1.53732e+04	
       928.262	     1.49657e+04	
       928.423	     1.39956e+04	
       928.583	     1.28203e+04	
       928.743	     1.14634e+04	
       928.903	     9.97346e+03	
       928.985	     9.16390e+03	
       929.037	     8.63423e+03	
       929.063	     8.36449e+03	
       929.089	     8.08979e+03	
       929.125	     7.69995e+03	
       929.193	     6.94254e+03	
       929.261	     6.19293e+03	
       929.398	     4.72213e+03	
       929.493	     3.72486e+03	
       929.525	     3.40203e+03	
       929.534	     3.31278e+03	
       929.543	     3.22428e+03	
       929.593	     2.75067e+03	
       929.617	     2.53987e+03	
       929.655	     2.22598e+03	
       929.693	     1.94545e+03	
       929.769	     1.49852e+03	
       929.827	     1.28779e+03	
       929.883	     1.20145e+03	
       929.910	     1.19604e+03	
       929.939	     1.19655e+03	
       929.954	     1.19688e+03	
       929.968	     1.19719e+03	
       929.982	     1.19750e+03	
       929.996	     1.19781e+03	
       930.010	     1.19812e+03	
       930.024	     1.19844e+03	
       930.038	     1.19874e+03	
       930.052	     1.19905e+03	
       930.081	     1.19970e+03	
       930.137	     1.20711e+03	
       930.201	     1.31841e+03	
       930.247	     1.49354e+03	
       930.249	     1.50260e+03	
       930.251	     1.51174e+03	
       930.301	     1.79056e+03	
       930.326	     1.95373e+03	
       930.402	     2.55801e+03	
       930.478	     3.27784e+03	
       930.630	     4.90290e+03	
       930.633	     4.93607e+03	
       930.782	     6.62276e+03	
       930.931	     8.36996e+03	
       931.080	     1.00132e+04	
       931.229	     1.16067e+04	
       931.379	     1.31566e+04	
       931.516	     1.44965e+04	
       931.528	     1.46158e+04	
       931.677	     1.60502e+04	
       931.838	     1.75652e+04	
       931.999	     1.90073e+04	
       932.160	     2.02789e+04	
       932.321	     2.14337e+04	
       932.483	     2.23116e+04	
       932.644	     2.30731e+04	
       932.805	     2.36830e+04	
       932.851	     2.38275e+04	
       932.966	     2.41548e+04	
       932.989	     2.42139e+04	
       933.127	     2.45230e+04	
       933.265	     2.47519e+04	
       933.403	     2.48979e+04	
       933.432	     2.49141e+04	
       933.542	     2.49304e+04	
       933.652	     2.48851e+04	
       933.762	     2.47828e+04	
       933.872	     2.45960e+04	
       933.982	     2.43202e+04	
       934.092	     2.39537e+04	
       934.202	     2.35095e+04	
       934.312	     2.29888e+04	
       934.413	     2.24680e+04	
       934.422	     2.24215e+04	
       934.533	     2.18235e+04	
       934.652	     2.11117e+04	
       934.771	     2.03502e+04	
       934.890	     1.95802e+04	
       935.009	     1.87463e+04	
       935.026	     1.86223e+04	
       935.128	     1.78802e+04	
       935.230	     1.71282e+04	
       935.332	     1.63375e+04	
       935.434	     1.55140e+04	
       935.537	     1.46685e+04	
       935.639	     1.37818e+04	
       935.741	     1.28623e+04	
       935.843	     1.18886e+04	
       935.945	     1.08561e+04	
       935.950	     1.08038e+04	
       936.047	     9.78851e+03	
       936.144	     8.74723e+03	
       936.338	     6.54356e+03	
       936.464	     5.09482e+03	
       936.532	     4.32114e+03	
       936.601	     3.57837e+03	
       936.645	     3.12429e+03	
       936.714	     2.48806e+03	
       936.737	     2.30002e+03	
       936.829	     1.69859e+03	
       936.887	     1.46711e+03	
       936.944	     1.36736e+03	
       936.973	     1.36127e+03	
       937.001	     1.36189e+03	
       937.015	     1.36224e+03	
       937.029	     1.36259e+03	
       937.043	     1.36293e+03	
       937.058	     1.36330e+03	
       937.072	     1.36365e+03	
       937.086	     1.36400e+03	
       937.101	     1.36437e+03	
       937.115	     1.36472e+03	
       937.143	     1.36541e+03	
       937.200	     1.37374e+03	
       937.314	     1.70844e+03	
       937.428	     2.50188e+03	
       937.493	     3.11032e+03	
       937.542	     3.62540e+03	
       937.593	     4.19421e+03	
       937.694	     5.36615e+03	
       937.788	     6.48975e+03	
       937.794	     6.56112e+03	
       937.894	     7.75961e+03	
       938.000	     9.01750e+03	
       938.106	     1.02233e+04	
       938.212	     1.14098e+04	
       938.318	     1.25604e+04	
       938.424	     1.36531e+04	
       938.530	     1.46976e+04	
       938.636	     1.57174e+04	
       938.743	     1.67075e+04	
       938.784	     1.70846e+04	
       938.849	     1.76779e+04	
       938.914	     1.82642e+04	
       939.044	     1.93933e+04	
       939.077	     1.96858e+04	
       939.174	     2.05505e+04	
       939.271	     2.13844e+04	
       939.465	     2.30243e+04	
       939.659	     2.46536e+04	
       939.854	     2.62675e+04	
       940.048	     2.78454e+04	
       940.242	     2.93382e+04	
       940.436	     3.06969e+04	
       940.520	     3.12523e+04	
       940.630	     3.19557e+04	
       940.740	     3.26308e+04	
       940.851	     3.31947e+04	
       940.961	     3.37329e+04	
       941.181	     3.47382e+04	
       941.401	     3.56301e+04	
       941.621	     3.64054e+04	
       941.841	     3.70984e+04	
       942.062	     3.76994e+04	
       942.282	     3.82062e+04	
       942.502	     3.85995e+04	
       942.722	     3.88844e+04	
       942.837	     3.89890e+04	
       942.942	     3.90588e+04	
       943.048	     3.91034e+04	
       943.258	     3.90962e+04	
       943.468	     3.89074e+04	
       943.678	     3.85926e+04	
       943.888	     3.81531e+04	
       944.099	     3.75709e+04	
       944.309	     3.68019e+04	
       944.519	     3.59109e+04	
       944.571	     3.56734e+04	
       944.729	     3.49128e+04	
       944.755	     3.47828e+04	
       944.939	     3.38560e+04	
       945.123	     3.28727e+04	
       945.308	     3.18184e+04	
       945.492	     3.07918e+04	
       945.676	     2.97398e+04	
       945.860	     2.86227e+04	
       946.044	     2.74958e+04	
       946.228	     2.63074e+04	
       946.413	     2.50780e+04	
       946.597	     2.38258e+04	
       946.781	     2.25287e+04	
       946.965	     2.12073e+04	
       947.108	     2.01123e+04	
       947.140	     1.98603e+04	
       947.149	     1.97890e+04	
       947.158	     1.97173e+04	
       947.208	     1.93118e+04	
       947.308	     1.84675e+04	
       947.509	     1.66622e+04	
       947.709	     1.46601e+04	
       947.735	     1.43841e+04	
       947.909	     1.24231e+04	
       948.083	     1.03024e+04	
       948.257	     8.02620e+03	
       948.317	     7.23078e+03	
       948.431	     5.71864e+03	
       948.546	     4.26298e+03	
       948.660	     2.99975e+03	
       948.727	     2.41408e+03	
       948.761	     2.17408e+03	
       948.771	     2.11334e+03	
       948.774	     2.09599e+03	
       948.777	     2.07887e+03	
       948.827	     1.83999e+03	
       948.835	     1.81195e+03	
       948.893	     1.69276e+03	
       948.922	     1.68607e+03	
       948.951	     1.68690e+03	
       948.966	     1.68735e+03	
       948.980	     1.68776e+03	
       948.994	     1.68818e+03	
       949.009	     1.68863e+03	
       949.023	     1.68905e+03	
       949.037	     1.68946e+03	
       949.052	     1.68991e+03	
       949.066	     1.69033e+03	
       949.095	     1.69120e+03	
       949.153	     1.70055e+03	
       949.230	     1.89663e+03	
       949.258	     2.03459e+03	
       949.269	     2.09673e+03	
       949.280	     2.16210e+03	
       949.330	     2.52829e+03	
       949.360	     2.78954e+03	
       949.430	     3.50231e+03	
       949.500	     4.33069e+03	
       949.640	     6.18391e+03	
       949.781	     8.11288e+03	
       949.795	     8.30621e+03	
       949.879	     9.46876e+03	
       949.921	     1.00439e+04	
       949.963	     1.06093e+04	
       950.131	     1.27820e+04	
       950.299	     1.48257e+04	
       950.467	     1.67071e+04	
       950.635	     1.84565e+04	
       950.719	     1.92827e+04	
       950.804	     2.00887e+04	
       950.888	     2.08665e+04	
       951.056	     2.23609e+04	
       951.224	     2.37762e+04	
       951.392	     2.51751e+04	
       951.728	     2.79282e+04	
       952.065	     3.06421e+04	
       952.401	     3.32767e+04	
       952.738	     3.58716e+04	
       953.413	     4.12667e+04	
       953.750	     4.39210e+04	
       953.918	     4.52367e+04	
       954.087	     4.64708e+04	
       954.256	     4.76071e+04	
       954.425	     4.87142e+04	
       954.593	     4.98018e+04	
       954.762	     5.08652e+04	
       954.859	     5.14433e+04	
       954.930	     5.18313e+04	
       955.099	     5.27335e+04	
       955.437	     5.44966e+04	
       956.014	     5.73473e+04	
       956.592	     5.99651e+04	
       957.169	     6.23804e+04	
       957.747	     6.45578e+04	
       958.036	     6.55380e+04	
       958.324	     6.64409e+04	
       958.514	     6.69907e+04	
       958.613	     6.72612e+04	
       958.901	     6.79916e+04	
       959.289	     6.88200e+04	
       959.676	     6.94694e+04	
       959.697	     6.94993e+04	
       960.063	     6.99381e+04	
       960.430	     7.02074e+04	
       960.796	     7.03117e+04	
       961.162	     7.02504e+04	
       961.529	     7.00358e+04	
       961.895	     6.96749e+04	
       962.261	     6.91747e+04	
       962.628	     6.85433e+04	
       962.994	     6.77824e+04	
       963.360	     6.69118e+04	
       963.727	     6.59361e+04	
       963.955	     6.52851e+04	
       964.093	     6.48745e+04	
       964.231	     6.44410e+04	
       964.507	     6.35450e+04	
       965.060	     6.16161e+04	
       965.612	     5.94996e+04	
       966.165	     5.71870e+04	
       966.717	     5.46923e+04	
       966.993	     5.33351e+04	
       967.269	     5.19356e+04	
       967.546	     5.04684e+04	
       967.612	     5.01021e+04	
       967.822	     4.89083e+04	
       968.032	     4.76573e+04	
       968.242	     4.63338e+04	
       968.452	     4.49587e+04	
       968.663	     4.35023e+04	
       968.873	     4.19654e+04	
       969.083	     4.03371e+04	
       969.247	     3.89900e+04	
       969.289	     3.86306e+04	
       969.293	     3.85964e+04	
       969.297	     3.85621e+04	
       969.347	     3.81261e+04	
       969.447	     3.72332e+04	
       969.647	     3.53564e+04	
       969.768	     3.41519e+04	
       969.847	     3.33383e+04	
       969.927	     3.24938e+04	
       970.085	     3.07030e+04	
       970.243	     2.88045e+04	
       970.401	     2.67372e+04	
       970.559	     2.44790e+04	
       970.717	     2.19636e+04	
       970.874	     1.91857e+04	
       971.031	     1.60973e+04	
       971.189	     1.26794e+04	
       971.298	     1.01477e+04	
       971.344	     9.06337e+03	
       971.346	     9.01603e+03	
       971.348	     8.96868e+03	
       971.398	     7.79256e+03	
       971.411	     7.49094e+03	
       971.467	     6.22478e+03	
       971.498	     5.55726e+03	
       971.585	     3.94267e+03	
       971.644	     3.13470e+03	
       971.703	     2.64308e+03	
       971.732	     2.53218e+03	
       971.762	     2.49813e+03	
       971.778	     2.49686e+03	
       971.792	     2.49736e+03	
       971.806	     2.49795e+03	
       971.821	     2.49857e+03	
       971.827	     2.49883e+03	
       971.833	     2.49908e+03	
       971.836	     2.49920e+03	
       971.839	     2.49933e+03	
       971.851	     2.49983e+03	
       971.866	     2.50046e+03	
       971.880	     2.50104e+03	
       971.910	     2.50299e+03	
       971.969	     2.62423e+03	
       972.037	     3.18784e+03	
       972.087	     3.87826e+03	
       972.137	     4.74852e+03	
       972.150	     5.00069e+03	
       972.199	     6.02058e+03	
       972.237	     6.87431e+03	
       972.324	     8.92033e+03	
       972.348	     9.50561e+03	
       972.499	     1.30047e+04	
       972.649	     1.62390e+04	
       972.798	     1.91498e+04	
       972.948	     2.17402e+04	
       973.097	     2.40555e+04	
       973.247	     2.61341e+04	
       973.396	     2.80485e+04	
       973.545	     2.98166e+04	
       973.645	     3.09338e+04	
       973.696	     3.14696e+04	
       973.746	     3.19984e+04	
       973.846	     3.30401e+04	
       974.046	     3.50215e+04	
       974.246	     3.68559e+04	
       974.446	     3.86384e+04	
       974.646	     4.03648e+04	
       974.846	     4.19415e+04	
       974.853	     4.19962e+04	
       975.047	     4.34888e+04	
       975.051	     4.35158e+04	
       975.247	     4.50306e+04	
       975.444	     4.63818e+04	
       975.640	     4.76740e+04	
       976.033	     5.02272e+04	
       976.427	     5.26478e+04	
       976.820	     5.51623e+04	
       977.607	     6.03525e+04	
       978.000	     6.29349e+04	
       978.393	     6.53885e+04	
       978.589	     6.66885e+04	
       978.786	     6.80777e+04	
       978.983	     6.95633e+04	
       979.055	     7.01273e+04	
       979.180	     7.11486e+04	
       979.305	     7.22236e+04	
       979.555	     7.41739e+04	
       979.805	     7.63118e+04	
       980.055	     7.84409e+04	
       980.306	     8.02077e+04	
       980.556	     8.20766e+04	
       981.056	     8.53046e+04	
       981.557	     8.83853e+04	
       982.557	     9.42977e+04	
       983.193	     9.79960e+04	
       983.558	     1.00226e+05	
       983.923	     1.02568e+05	
       984.654	     1.07094e+05	
       985.612	     1.12695e+05	
       986.115	     1.15742e+05	
       986.366	     1.17219e+05	
       986.618	     1.18705e+05	
       986.870	     1.19960e+05	
       987.122	     1.20882e+05	
       987.374	     1.21778e+05	
       987.625	     1.22625e+05	
       987.877	     1.23427e+05	
       988.128	     1.24201e+05	
       988.381	     1.25468e+05	
       988.632	     1.26727e+05	
       988.884	     1.27884e+05	
       988.958	     1.28149e+05	
       989.135	     1.28772e+05	
       989.312	     1.29383e+05	
       989.666	     1.30158e+05	
       990.021	     1.30397e+05	
       990.375	     1.30809e+05	
       990.729	     1.31413e+05	
       991.084	     1.32528e+05	
       991.438	     1.34055e+05	
       991.792	     1.36074e+05	
       992.146	     1.38369e+05	
       992.501	     1.41267e+05	
       992.539	     1.41613e+05	
       992.855	     1.44606e+05	
       993.209	     1.48252e+05	
       993.544	     1.51955e+05	
       993.880	     1.54774e+05	
       994.048	     1.55946e+05	
       994.215	     1.57131e+05	
       994.383	     1.58097e+05	
       994.550	     1.58467e+05	
       994.718	     1.58826e+05	
       994.885	     1.59177e+05	
       995.053	     1.59563e+05	
