# Koester WD models
# teff = 11750 K (value for the effective temperature for the model. Temperatures are given in K)
# logg = 9.25 log(cm/s2) (value for Log(G) for the model.)
#
#   WAVELENGTH	#           FLUX	
#   (ANGSTROM)	#  (ERG/CM2/S/A)	
##############	################	
       899.230	     7.33766e+03	
       901.457	     7.62166e+03	
       903.134	     7.84157e+03	
       903.685	     7.91493e+03	
       904.235	     7.98888e+03	
       905.336	     8.13852e+03	
       905.836	     8.20719e+03	
       907.538	     8.44498e+03	
       908.450	     8.57469e+03	
       909.241	     8.68858e+03	
       910.032	     8.80375e+03	
       911.193	     8.97528e+03	
       911.613	     9.03802e+03	
       911.824	     9.06950e+03	
       911.929	     9.08523e+03	
       912.034	     9.10101e+03	
       912.139	     9.15202e+03	
       912.244	     9.21055e+03	
       912.349	     9.27166e+03	
       912.454	     9.33524e+03	
       912.559	     9.40546e+03	
       912.664	     9.48177e+03	
       912.770	     9.56056e+03	
       912.875	     9.63976e+03	
       912.886	     9.64796e+03	
       913.085	     9.77268e+03	
       913.284	     9.84666e+03	
       913.339	     9.85065e+03	
       913.435	     9.85317e+03	
       913.483	     9.86674e+03	
       913.531	     9.87990e+03	
       913.625	     9.87525e+03	
       913.724	     9.83039e+03	
       913.822	     9.82216e+03	
       913.871	     9.84003e+03	
       914.018	     9.80519e+03	
       914.165	     9.62505e+03	
       914.312	     9.88977e+03	
       914.343	     9.92778e+03	
       914.459	     9.64079e+03	
       914.575	     9.45626e+03	
       914.692	     9.72329e+03	
       914.808	     1.01925e+04	
       914.924	     9.72807e+03	
       915.009	     9.43449e+03	
       915.040	     9.40235e+03	
       915.071	     9.39635e+03	
       915.133	     9.45874e+03	
       915.257	     1.01473e+04	
       915.381	     1.08413e+04	
       915.505	     9.88477e+03	
       915.540	     9.67014e+03	
       915.609	     9.45974e+03	
       915.617	     9.45286e+03	
       915.630	     9.44159e+03	
       915.643	     9.43505e+03	
       915.677	     9.43364e+03	
       915.813	     9.73878e+03	
       915.949	     1.13784e+04	
       916.085	     1.21850e+04	
       916.221	     1.04412e+04	
       916.285	     9.77218e+03	
       916.357	     9.54240e+03	
       916.429	     9.53181e+03	
       916.574	     9.83344e+03	
       916.718	     1.22549e+04	
       916.862	     1.48109e+04	
       917.006	     1.41319e+04	
       917.150	     1.10290e+04	
       917.210	     1.00651e+04	
       917.294	     9.68207e+03	
       917.378	     9.67783e+03	
       917.547	     1.01343e+04	
       917.715	     1.43525e+04	
       917.883	     1.88539e+04	
       918.051	     1.96112e+04	
       918.219	     1.58713e+04	
       918.387	     1.10315e+04	
       918.510	     9.87230e+03	
       918.556	     9.86740e+03	
       918.602	     9.87459e+03	
       918.694	     9.90236e+03	
       918.878	     1.28038e+04	
       919.062	     2.00635e+04	
       919.201	     2.50908e+04	
       919.241	     2.61315e+04	
       919.246	     2.62477e+04	
       919.251	     2.63609e+04	
       919.301	     2.72374e+04	
       919.402	     2.79315e+04	
       919.502	     2.73691e+04	
       919.602	     2.54356e+04	
       919.702	     2.23128e+04	
       919.802	     1.83221e+04	
       919.902	     1.44645e+04	
       920.002	     1.13768e+04	
       920.102	     1.01513e+04	
       920.163	     1.01316e+04	
       920.189	     1.01359e+04	
       920.202	     1.01381e+04	
       920.215	     1.01402e+04	
       920.267	     1.01489e+04	
       920.372	     1.04594e+04	
       920.476	     1.27784e+04	
       920.580	     1.68057e+04	
       920.684	     2.16712e+04	
       920.788	     2.66162e+04	
       920.892	     3.11784e+04	
       920.996	     3.49251e+04	
       921.100	     3.76140e+04	
       921.204	     3.92099e+04	
       921.308	     3.98630e+04	
       921.413	     3.94320e+04	
       921.517	     3.79049e+04	
       921.621	     3.51997e+04	
       921.725	     3.12233e+04	
       921.829	     2.68817e+04	
       921.933	     2.21804e+04	
       922.037	     1.73884e+04	
       922.141	     1.32788e+04	
       922.245	     1.08207e+04	
       922.294	     1.05081e+04	
       922.350	     1.05009e+04	
       922.405	     1.05104e+04	
       922.515	     1.05459e+04	
       922.625	     1.21055e+04	
       922.660	     1.31360e+04	
       922.735	     1.60140e+04	
       922.810	     1.94465e+04	
       922.960	     2.70689e+04	
       923.110	     3.49512e+04	
       923.260	     4.25356e+04	
       923.411	     4.85232e+04	
       923.561	     5.28428e+04	
       923.711	     5.57271e+04	
       923.861	     5.74305e+04	
       924.011	     5.78358e+04	
       924.161	     5.67155e+04	
       924.312	     5.38862e+04	
       924.462	     4.92240e+04	
       924.612	     4.31938e+04	
       924.762	     3.61698e+04	
       924.912	     2.85197e+04	
       925.062	     2.10078e+04	
       925.212	     1.43031e+04	
       925.241	     1.32764e+04	
       925.363	     1.10685e+04	
       925.484	     1.10502e+04	
       925.605	     1.11120e+04	
       925.726	     1.33805e+04	
       925.847	     1.84198e+04	
       925.968	     2.45894e+04	
       926.089	     3.10464e+04	
       926.210	     3.78295e+04	
       926.295	     4.24970e+04	
       926.332	     4.45051e+04	
       926.369	     4.64462e+04	
       926.443	     5.04310e+04	
       926.591	     5.82049e+04	
       926.739	     6.50256e+04	
       926.887	     7.06601e+04	
       927.035	     7.48686e+04	
       927.183	     7.81427e+04	
       927.332	     8.06337e+04	
       927.480	     8.25290e+04	
       927.628	     8.37514e+04	
       927.776	     8.42980e+04	
       927.924	     8.40389e+04	
       927.962	     8.38435e+04	
       928.072	     8.28614e+04	
       928.182	     8.11951e+04	
       928.293	     7.89077e+04	
       928.403	     7.60049e+04	
       928.513	     7.24615e+04	
       928.623	     6.87151e+04	
       928.733	     6.47228e+04	
       928.843	     6.04552e+04	
       928.953	     5.57114e+04	
       928.985	     5.42613e+04	
       929.037	     5.18466e+04	
       929.063	     5.06045e+04	
       929.089	     4.93324e+04	
       929.125	     4.75188e+04	
       929.193	     4.39336e+04	
       929.261	     4.02444e+04	
       929.398	     3.26832e+04	
       929.493	     2.75185e+04	
       929.526	     2.57765e+04	
       929.534	     2.53073e+04	
       929.543	     2.48407e+04	
       929.593	     2.22001e+04	
       929.617	     2.09662e+04	
       929.655	     1.90933e+04	
       929.693	     1.73307e+04	
       929.769	     1.42638e+04	
       929.827	     1.26387e+04	
       929.883	     1.19276e+04	
       929.910	     1.18702e+04	
       929.939	     1.18727e+04	
       929.954	     1.18756e+04	
       929.968	     1.18782e+04	
       929.982	     1.18809e+04	
       929.996	     1.18836e+04	
       930.010	     1.18862e+04	
       930.024	     1.18889e+04	
       930.038	     1.18916e+04	
       930.052	     1.18943e+04	
       930.081	     1.18998e+04	
       930.137	     1.19763e+04	
       930.201	     1.28871e+04	
       930.247	     1.42368e+04	
       930.249	     1.43042e+04	
       930.251	     1.43730e+04	
       930.301	     1.63617e+04	
       930.326	     1.74140e+04	
       930.402	     2.11206e+04	
       930.478	     2.52026e+04	
       930.630	     3.37297e+04	
       930.633	     3.39009e+04	
       930.782	     4.26053e+04	
       930.931	     5.10804e+04	
       931.080	     5.89067e+04	
       931.229	     6.63215e+04	
       931.379	     7.35265e+04	
       931.528	     8.09032e+04	
       931.677	     8.85005e+04	
       931.788	     9.37423e+04	
       931.814	     9.49176e+04	
       931.826	     9.54504e+04	
       931.838	     9.59797e+04	
       931.888	     9.81565e+04	
       931.988	     1.02316e+05	
       932.188	     1.08653e+05	
       932.389	     1.13766e+05	
       932.589	     1.17780e+05	
       932.789	     1.21147e+05	
       932.989	     1.23821e+05	
       933.189	     1.25908e+05	
       933.347	     1.27149e+05	
       933.375	     1.27330e+05	
       933.377	     1.27342e+05	
       933.389	     1.27415e+05	
       933.403	     1.27498e+05	
       933.432	     1.27668e+05	
       933.460	     1.27822e+05	
       933.542	     1.28191e+05	
       933.652	     1.28549e+05	
       933.762	     1.28834e+05	
       933.872	     1.28818e+05	
       933.982	     1.28326e+05	
       934.092	     1.27273e+05	
       934.202	     1.25806e+05	
       934.312	     1.23927e+05	
       934.413	     1.21794e+05	
       934.422	     1.21587e+05	
       934.533	     1.18812e+05	
       934.652	     1.15382e+05	
       934.771	     1.11428e+05	
       934.890	     1.07295e+05	
       935.009	     1.02756e+05	
       935.026	     1.02088e+05	
       935.128	     9.82640e+04	
       935.230	     9.46270e+04	
       935.332	     9.07436e+04	
       935.434	     8.66401e+04	
       935.537	     8.23487e+04	
       935.639	     7.78735e+04	
       935.741	     7.33772e+04	
       935.746	     7.31488e+04	
       935.843	     6.86218e+04	
       935.945	     6.35755e+04	
       936.144	     5.32010e+04	
       936.343	     4.23515e+04	
       936.484	     3.42616e+04	
       936.542	     3.08778e+04	
       936.601	     2.75209e+04	
       936.605	     2.72914e+04	
       936.717	     2.11285e+04	
       936.829	     1.60119e+04	
       936.894	     1.40413e+04	
       936.938	     1.33839e+04	
       936.941	     1.33620e+04	
       936.944	     1.33473e+04	
       936.973	     1.32778e+04	
       936.987	     1.32791e+04	
       936.994	     1.32805e+04	
       937.001	     1.32820e+04	
       937.015	     1.32849e+04	
       937.029	     1.32879e+04	
       937.043	     1.32908e+04	
       937.058	     1.32939e+04	
       937.072	     1.32969e+04	
       937.086	     1.32998e+04	
       937.101	     1.33029e+04	
       937.115	     1.33059e+04	
       937.143	     1.33117e+04	
       937.200	     1.34013e+04	
       937.314	     1.60930e+04	
       937.428	     2.14103e+04	
       937.493	     2.49854e+04	
       937.542	     2.78514e+04	
       937.593	     3.08864e+04	
       937.694	     3.69033e+04	
       937.788	     4.24907e+04	
       937.894	     4.86626e+04	
       938.000	     5.46477e+04	
       938.106	     6.05850e+04	
       938.212	     6.63922e+04	
       938.318	     7.20056e+04	
       938.424	     7.73372e+04	
       938.530	     8.24618e+04	
       938.571	     8.44975e+04	
       938.743	     9.26764e+04	
       938.899	     9.98024e+04	
       938.914	     1.00467e+05	
       939.085	     1.08044e+05	
       939.271	     1.17322e+05	
       939.457	     1.26421e+05	
       939.643	     1.35416e+05	
       939.830	     1.43831e+05	
       940.016	     1.51834e+05	
       940.202	     1.59347e+05	
       940.388	     1.65179e+05	
       940.408	     1.65760e+05	
       940.574	     1.70413e+05	
       940.740	     1.74828e+05	
       940.907	     1.78913e+05	
       941.073	     1.82744e+05	
       941.239	     1.86314e+05	
       941.405	     1.89532e+05	
       941.571	     1.92402e+05	
       941.737	     1.95072e+05	
       942.070	     1.99781e+05	
       942.236	     2.01821e+05	
       942.402	     2.03560e+05	
       942.421	     2.03741e+05	
       942.568	     2.05035e+05	
       942.734	     2.06250e+05	
       943.048	     2.07792e+05	
       943.204	     2.08608e+05	
       943.361	     2.08987e+05	
       943.517	     2.08980e+05	
       943.674	     2.08595e+05	
       943.830	     2.07834e+05	
       943.987	     2.06708e+05	
       944.144	     2.04793e+05	
       944.301	     2.02232e+05	
       944.457	     1.99205e+05	
       944.614	     1.95675e+05	
       944.770	     1.91689e+05	
       944.927	     1.87427e+05	
       945.083	     1.82808e+05	
       945.173	     1.79990e+05	
       945.241	     1.77758e+05	
       945.308	     1.75438e+05	
       945.442	     1.70692e+05	
       945.710	     1.60657e+05	
       945.844	     1.55306e+05	
       945.978	     1.50792e+05	
       946.112	     1.46463e+05	
       946.246	     1.41878e+05	
       946.381	     1.37220e+05	
       946.515	     1.32443e+05	
       946.783	     1.22403e+05	
       946.944	     1.16275e+05	
       947.051	     1.12084e+05	
       947.158	     1.07795e+05	
       947.265	     1.03324e+05	
       947.372	     9.87205e+04	
       947.480	     9.39575e+04	
       947.587	     8.89256e+04	
       947.694	     8.36421e+04	
       947.801	     7.80793e+04	
       947.908	     7.21803e+04	
       947.947	     6.99444e+04	
       948.015	     6.60177e+04	
       948.083	     6.19638e+04	
       948.219	     5.36380e+04	
       948.355	     4.49040e+04	
       948.437	     3.95351e+04	
       948.491	     3.59662e+04	
       948.546	     3.24256e+04	
       948.654	     2.56403e+04	
       948.717	     2.21151e+04	
       948.747	     2.05912e+04	
       948.762	     1.98785e+04	
       948.777	     1.91855e+04	
       948.781	     1.90158e+04	
       948.835	     1.70942e+04	
       948.837	     1.70421e+04	
       948.893	     1.60673e+04	
       948.922	     1.59819e+04	
       948.951	     1.59873e+04	
       948.966	     1.59910e+04	
       948.980	     1.59944e+04	
       948.994	     1.59978e+04	
       949.009	     1.60015e+04	
       949.023	     1.60049e+04	
       949.037	     1.60084e+04	
       949.052	     1.60120e+04	
       949.066	     1.60155e+04	
       949.095	     1.60226e+04	
       949.153	     1.61313e+04	
       949.230	     1.77889e+04	
       949.258	     1.88629e+04	
       949.269	     1.93282e+04	
       949.280	     1.98431e+04	
       949.330	     2.23713e+04	
       949.360	     2.40214e+04	
       949.430	     2.82745e+04	
       949.500	     3.28758e+04	
       949.598	     3.95197e+04	
       949.640	     4.23779e+04	
       949.781	     5.18039e+04	
       949.963	     6.35899e+04	
       950.145	     7.48346e+04	
       950.327	     8.53335e+04	
       950.509	     9.50316e+04	
       950.691	     1.04068e+05	
       950.832	     1.10715e+05	
       950.860	     1.12023e+05	
       950.874	     1.12673e+05	
       950.888	     1.13321e+05	
       950.944	     1.15866e+05	
       951.056	     1.20905e+05	
       951.280	     1.30726e+05	
       951.504	     1.40534e+05	
       951.728	     1.50002e+05	
       951.953	     1.59379e+05	
       952.065	     1.63863e+05	
       952.177	     1.68426e+05	
       952.289	     1.74087e+05	
       952.401	     1.79647e+05	
       952.513	     1.85195e+05	
       952.625	     1.90708e+05	
       952.738	     1.96267e+05	
       952.964	     2.07123e+05	
       953.417	     2.28289e+05	
       953.643	     2.38789e+05	
       953.869	     2.49170e+05	
       954.095	     2.58796e+05	
       954.322	     2.67526e+05	
       954.548	     2.76208e+05	
       954.774	     2.84797e+05	
       955.226	     3.01333e+05	
       955.343	     3.05510e+05	
       955.679	     3.17244e+05	
       956.014	     3.27486e+05	
       956.349	     3.36842e+05	
       956.685	     3.45704e+05	
       957.020	     3.54101e+05	
       957.355	     3.62021e+05	
       957.690	     3.69344e+05	
       958.026	     3.76061e+05	
       958.104	     3.77538e+05	
       958.361	     3.82162e+05	
       958.400	     3.82831e+05	
       958.696	     3.87594e+05	
       958.993	     3.91794e+05	
       959.289	     3.95413e+05	
       959.333	     3.95900e+05	
       959.585	     3.98451e+05	
       959.607	     3.98652e+05	
       959.881	     4.00921e+05	
       960.156	     4.02705e+05	
       960.380	     4.03742e+05	
       960.430	     4.03921e+05	
       960.480	     4.04144e+05	
       960.580	     4.04527e+05	
       960.780	     4.05055e+05	
       961.180	     4.05099e+05	
       961.581	     4.03830e+05	
       961.981	     4.01254e+05	
       962.381	     3.97446e+05	
       962.782	     3.92539e+05	
       963.182	     3.86450e+05	
       963.582	     3.79520e+05	
       963.735	     3.76668e+05	
       963.983	     3.71795e+05	
       964.231	     3.66545e+05	
       964.727	     3.55229e+05	
       965.224	     3.42939e+05	
       965.720	     3.29704e+05	
       966.217	     3.15586e+05	
       966.713	     3.00592e+05	
       967.209	     2.84523e+05	
       967.379	     2.78905e+05	
       967.706	     2.67591e+05	
       968.032	     2.55729e+05	
       968.358	     2.43287e+05	
       968.685	     2.30029e+05	
       968.725	     2.28335e+05	
       969.011	     2.15971e+05	
       969.154	     2.09476e+05	
       969.297	     2.02855e+05	
       969.440	     1.95939e+05	
       969.583	     1.88665e+05	
       969.726	     1.81240e+05	
       969.812	     1.76597e+05	
       969.869	     1.73461e+05	
       969.927	     1.70273e+05	
       970.041	     1.63637e+05	
       970.155	     1.56804e+05	
       970.269	     1.49733e+05	
       970.383	     1.42349e+05	
       970.497	     1.34607e+05	
       970.576	     1.29060e+05	
       970.611	     1.26540e+05	
       970.725	     1.17813e+05	
       970.874	     1.05612e+05	
       971.023	     9.22554e+04	
       971.173	     7.75238e+04	
       971.244	     7.00101e+04	
       971.296	     6.43134e+04	
       971.322	     6.14313e+04	
       971.348	     5.85351e+04	
       971.452	     4.67158e+04	
       971.527	     3.83409e+04	
       971.556	     3.52810e+04	
       971.583	     3.25645e+04	
       971.585	     3.23732e+04	
       971.643	     2.72861e+04	
       971.703	     2.36743e+04	
       971.732	     2.27796e+04	
       971.762	     2.24652e+04	
       971.778	     2.24483e+04	
       971.792	     2.24516e+04	
       971.806	     2.24561e+04	
       971.821	     2.24610e+04	
       971.827	     2.24630e+04	
       971.833	     2.24649e+04	
       971.836	     2.24659e+04	
       971.839	     2.24669e+04	
       971.851	     2.24708e+04	
       971.866	     2.24756e+04	
       971.880	     2.24802e+04	
       971.910	     2.24984e+04	
       971.969	     2.35203e+04	
       972.037	     2.75940e+04	
       972.087	     3.20188e+04	
       972.137	     3.71377e+04	
       972.150	     3.85404e+04	
       972.237	     4.84132e+04	
       972.324	     5.84308e+04	
       972.499	     7.75241e+04	
       972.548	     8.25617e+04	
       972.673	     9.45883e+04	
       972.798	     1.05580e+05	
       972.923	     1.15617e+05	
       973.048	     1.24810e+05	
       973.173	     1.33330e+05	
       973.298	     1.41222e+05	
       973.423	     1.48821e+05	
       973.548	     1.56012e+05	
       973.601	     1.58970e+05	
       973.673	     1.62903e+05	
       973.746	     1.66735e+05	
       973.890	     1.74331e+05	
       974.034	     1.81538e+05	
       974.178	     1.88431e+05	
       974.466	     2.01834e+05	
       974.754	     2.14720e+05	
       975.043	     2.26703e+05	
       975.187	     2.32789e+05	
       975.331	     2.38604e+05	
       975.475	     2.43895e+05	
       975.556	     2.46881e+05	
       975.598	     2.48431e+05	
       975.619	     2.49204e+05	
       975.640	     2.49977e+05	
       975.724	     2.53073e+05	
       975.892	     2.59296e+05	
       976.228	     2.71108e+05	
       976.565	     2.82997e+05	
       976.901	     2.95647e+05	
       977.237	     3.09288e+05	
       977.860	     3.32974e+05	
       977.910	     3.35004e+05	
       978.221	     3.46675e+05	
       978.582	     3.60897e+05	
       978.763	     3.68606e+05	
       978.944	     3.76803e+05	
       979.125	     3.85530e+05	
       979.305	     3.94920e+05	
       979.666	     4.12501e+05	
       979.846	     4.22243e+05	
       980.027	     4.31837e+05	
       980.208	     4.39515e+05	
       980.389	     4.47492e+05	
       980.569	     4.55795e+05	
       980.750	     4.63328e+05	
       980.930	     4.69982e+05	
       981.111	     4.76756e+05	
       981.291	     4.83698e+05	
       981.472	     4.90302e+05	
       981.834	     5.03575e+05	
       982.556	     5.29041e+05	
