# Koester WD models
# teff = 13250 K (value for the effective temperature for the model. Temperatures are given in K)
# logg = 9.5 log(cm/s2) (value for Log(G) for the model.)
#
#   WAVELENGTH	#           FLUX	
#   (ANGSTROM)	#  (ERG/CM2/S/A)	
##############	################	
       899.230	     6.14200e+04	
       900.682	     6.26924e+04	
       902.458	     6.42779e+04	
       904.235	     6.58965e+04	
       906.337	     6.78537e+04	
       907.788	     6.92341e+04	
       908.450	     6.98703e+04	
       909.241	     7.06371e+04	
       910.032	     7.14106e+04	
       911.193	     7.25573e+04	
       911.613	     7.29742e+04	
       911.824	     7.31825e+04	
       911.929	     7.32861e+04	
       912.034	     7.33898e+04	
       912.139	     7.41168e+04	
       912.244	     7.48852e+04	
       912.349	     7.56775e+04	
       912.454	     7.64805e+04	
       912.559	     7.72935e+04	
       912.664	     7.81138e+04	
       912.770	     7.89335e+04	
       912.875	     7.97421e+04	
       912.886	     7.98254e+04	
       913.037	     8.09205e+04	
       913.085	     8.12623e+04	
       913.284	     8.25714e+04	
       913.407	     8.32211e+04	
       913.531	     8.38560e+04	
       913.649	     8.40847e+04	
       913.654	     8.40989e+04	
       913.736	     8.44564e+04	
       913.779	     8.46351e+04	
       913.822	     8.47740e+04	
       913.994	     8.41639e+04	
       914.165	     8.43499e+04	
       914.336	     8.38193e+04	
       914.439	     8.26273e+04	
       914.507	     8.18162e+04	
       914.575	     8.15934e+04	
       914.712	     8.31379e+04	
       914.848	     8.26308e+04	
       914.897	     8.07666e+04	
       914.984	     7.78970e+04	
       915.071	     7.66326e+04	
       915.245	     8.21596e+04	
       915.419	     8.38105e+04	
       915.544	     7.58930e+04	
       915.594	     7.33377e+04	
       915.609	     7.26462e+04	
       915.643	     7.19029e+04	
       915.677	     7.16959e+04	
       915.745	     7.31020e+04	
       915.881	     8.35670e+04	
       916.017	     9.35617e+04	
       916.153	     8.83369e+04	
       916.289	     7.43609e+04	
       916.379	     6.93698e+04	
       916.421	     6.87713e+04	
       916.425	     6.87644e+04	
       916.429	     6.87663e+04	
       916.479	     6.95392e+04	
       916.580	     7.61158e+04	
       916.680	     8.97003e+04	
       916.780	     1.03728e+05	
       916.880	     1.10963e+05	
       916.980	     1.07669e+05	
       917.080	     9.57598e+04	
       917.180	     8.01144e+04	
       917.182	     7.98115e+04	
       917.280	     6.95577e+04	
       917.378	     6.72125e+04	
       917.575	     8.09434e+04	
       917.771	     1.18432e+05	
       917.967	     1.39809e+05	
       918.163	     1.25899e+05	
       918.359	     8.79442e+04	
       918.510	     6.86457e+04	
       918.556	     6.73803e+04	
       918.602	     6.71446e+04	
       918.694	     6.88376e+04	
       918.878	     9.65986e+04	
       919.062	     1.41518e+05	
       919.201	     1.68386e+05	
       919.241	     1.73947e+05	
       919.246	     1.74566e+05	
       919.251	     1.75169e+05	
       919.301	     1.79855e+05	
       919.402	     1.83531e+05	
       919.502	     1.80556e+05	
       919.602	     1.69748e+05	
       919.702	     1.52788e+05	
       919.802	     1.30248e+05	
       919.902	     1.06004e+05	
       920.002	     8.39119e+04	
       920.102	     7.01483e+04	
       920.163	     6.83871e+04	
       920.189	     6.82530e+04	
       920.202	     6.82401e+04	
       920.215	     6.82432e+04	
       920.267	     6.84895e+04	
       920.372	     7.49242e+04	
       920.476	     9.44963e+04	
       920.580	     1.20299e+05	
       920.684	     1.49443e+05	
       920.788	     1.75393e+05	
       920.892	     1.99304e+05	
       920.996	     2.17425e+05	
       921.100	     2.30549e+05	
       921.204	     2.38101e+05	
       921.308	     2.40891e+05	
       921.413	     2.38881e+05	
       921.517	     2.31629e+05	
       921.621	     2.18822e+05	
       921.725	     2.00748e+05	
       921.829	     1.77675e+05	
       921.933	     1.52516e+05	
       922.037	     1.24103e+05	
       922.141	     9.71462e+04	
       922.245	     7.65826e+04	
       922.294	     7.14269e+04	
       922.350	     7.03233e+04	
       922.405	     7.03132e+04	
       922.515	     7.16519e+04	
       922.625	     8.80255e+04	
       922.660	     9.60193e+04	
       922.735	     1.15691e+05	
       922.810	     1.37103e+05	
       922.960	     1.79221e+05	
       923.110	     2.19463e+05	
       923.260	     2.53897e+05	
       923.411	     2.82177e+05	
       923.561	     3.02992e+05	
       923.711	     3.17075e+05	
       923.861	     3.24825e+05	
       924.011	     3.26613e+05	
       924.161	     3.21580e+05	
       924.312	     3.09020e+05	
       924.462	     2.88564e+05	
       924.612	     2.60288e+05	
       924.762	     2.27479e+05	
       924.912	     1.88544e+05	
       925.062	     1.46957e+05	
       925.212	     1.03852e+05	
       925.241	     9.61843e+04	
       925.363	     7.48569e+04	
       925.484	     7.34520e+04	
       925.605	     7.51139e+04	
       925.726	     9.68456e+04	
       925.847	     1.31216e+05	
       925.968	     1.67586e+05	
       926.089	     2.02465e+05	
       926.210	     2.36325e+05	
       926.220	     2.38958e+05	
       926.295	     2.58008e+05	
       926.332	     2.67481e+05	
       926.369	     2.76831e+05	
       926.517	     3.13310e+05	
       926.665	     3.45798e+05	
       926.813	     3.73177e+05	
       926.961	     3.96130e+05	
       927.109	     4.13732e+05	
       927.257	     4.27919e+05	
       927.406	     4.38924e+05	
       927.554	     4.46515e+05	
       927.702	     4.51120e+05	
       927.850	     4.52531e+05	
       927.998	     4.50762e+05	
       928.038	     4.49540e+05	
       928.110	     4.45842e+05	
       928.146	     4.43561e+05	
       928.182	     4.40985e+05	
       928.327	     4.27546e+05	
       928.471	     4.08891e+05	
       928.615	     3.85517e+05	
       928.717	     3.67170e+05	
       928.759	     3.58987e+05	
       928.903	     3.32076e+05	
       928.917	     3.29251e+05	
       929.089	     2.92383e+05	
       929.261	     2.49956e+05	
       929.325	     2.33173e+05	
       929.434	     2.02331e+05	
       929.543	     1.70580e+05	
       929.652	     1.37060e+05	
       929.719	     1.16742e+05	
       929.753	     1.06917e+05	
       929.755	     1.06354e+05	
       929.761	     1.04673e+05	
       929.769	     1.02462e+05	
       929.819	     9.00481e+04	
       929.827	     8.83928e+04	
       929.883	     7.99149e+04	
       929.910	     7.85040e+04	
       929.939	     7.82156e+04	
       929.954	     7.82241e+04	
       929.968	     7.82392e+04	
       929.982	     7.82546e+04	
       929.996	     7.82700e+04	
       930.010	     7.82853e+04	
       930.024	     7.83007e+04	
       930.038	     7.83161e+04	
       930.052	     7.83315e+04	
       930.081	     7.83714e+04	
       930.137	     8.01992e+04	
       930.201	     9.05259e+04	
       930.247	     1.02030e+05	
       930.249	     1.02585e+05	
       930.251	     1.03142e+05	
       930.301	     1.17671e+05	
       930.326	     1.24898e+05	
       930.402	     1.48881e+05	
       930.478	     1.72771e+05	
       930.630	     2.18653e+05	
       930.633	     2.19555e+05	
       930.782	     2.61944e+05	
       930.931	     3.01601e+05	
       931.080	     3.38164e+05	
       931.229	     3.72791e+05	
       931.379	     4.08577e+05	
       931.528	     4.44227e+05	
       931.677	     4.77777e+05	
       931.788	     5.00864e+05	
       931.814	     5.06016e+05	
       931.826	     5.08357e+05	
       931.838	     5.10656e+05	
       931.888	     5.20025e+05	
       931.988	     5.37775e+05	
       932.188	     5.65119e+05	
       932.389	     5.88065e+05	
       932.589	     6.07323e+05	
       932.789	     6.23207e+05	
       932.989	     6.35406e+05	
       933.189	     6.44919e+05	
       933.347	     6.50495e+05	
       933.375	     6.51290e+05	
       933.377	     6.51343e+05	
       933.389	     6.51664e+05	
       933.403	     6.52025e+05	
       933.432	     6.52682e+05	
       933.460	     6.53272e+05	
       933.542	     6.54651e+05	
       933.652	     6.55663e+05	
       933.762	     6.55716e+05	
       933.872	     6.54664e+05	
       933.982	     6.51862e+05	
       934.092	     6.46995e+05	
       934.202	     6.40555e+05	
       934.312	     6.32450e+05	
       934.413	     6.23735e+05	
       934.422	     6.22924e+05	
       934.533	     6.12086e+05	
       934.652	     5.98338e+05	
       934.771	     5.82436e+05	
       934.890	     5.64664e+05	
       935.009	     5.44824e+05	
       935.026	     5.41834e+05	
       935.128	     5.24539e+05	
       935.230	     5.08376e+05	
       935.332	     4.91320e+05	
       935.434	     4.73344e+05	
       935.537	     4.54158e+05	
       935.639	     4.33753e+05	
       935.741	     4.12777e+05	
       935.746	     4.11728e+05	
       935.843	     3.90613e+05	
       935.945	     3.66881e+05	
       936.144	     3.17408e+05	
       936.343	     2.64896e+05	
       936.484	     2.23960e+05	
       936.542	     2.06008e+05	
       936.601	     1.87568e+05	
       936.605	     1.86276e+05	
       936.717	     1.49293e+05	
       936.829	     1.13836e+05	
       936.894	     9.64478e+04	
       936.938	     8.87126e+04	
       936.941	     8.83780e+04	
       936.944	     8.80686e+04	
       936.973	     8.64394e+04	
       936.987	     8.62735e+04	
       936.994	     8.62584e+04	
       937.001	     8.62606e+04	
       937.015	     8.62750e+04	
       937.029	     8.62917e+04	
       937.043	     8.63083e+04	
       937.058	     8.63263e+04	
       937.072	     8.63429e+04	
       937.086	     8.63596e+04	
       937.101	     8.63775e+04	
       937.115	     8.63938e+04	
       937.143	     8.64293e+04	
       937.200	     8.83787e+04	
       937.314	     1.14278e+05	
       937.428	     1.51032e+05	
       937.493	     1.73040e+05	
       937.542	     1.89530e+05	
       937.593	     2.06251e+05	
       937.694	     2.37944e+05	
       937.794	     2.67784e+05	
       937.894	     2.95954e+05	
       937.950	     3.11330e+05	
       937.988	     3.21687e+05	
       937.994	     3.23304e+05	
       938.000	     3.24954e+05	
       938.050	     3.38563e+05	
       938.150	     3.64949e+05	
       938.250	     3.90742e+05	
       938.450	     4.38871e+05	
       938.650	     4.84550e+05	
       938.788	     5.14206e+05	
       938.809	     5.18708e+05	
       938.851	     5.27649e+05	
       938.914	     5.40907e+05	
       938.924	     5.43100e+05	
       939.040	     5.66596e+05	
       939.155	     5.93805e+05	
       939.271	     6.20820e+05	
       939.387	     6.46782e+05	
       939.502	     6.72043e+05	
       939.618	     6.96205e+05	
       939.733	     7.19264e+05	
       939.965	     7.64792e+05	
       940.081	     7.86218e+05	
       940.196	     8.06821e+05	
       940.312	     8.24728e+05	
       940.427	     8.41670e+05	
       940.576	     8.62612e+05	
       940.658	     8.73661e+05	
       940.740	     8.84368e+05	
       940.905	     9.05420e+05	
       941.069	     9.25196e+05	
       941.233	     9.43646e+05	
       941.397	     9.60162e+05	
       941.561	     9.74268e+05	
       941.725	     9.87362e+05	
       941.889	     9.99479e+05	
       942.054	     1.01051e+06	
       942.218	     1.02055e+06	
       942.382	     1.02906e+06	
       942.546	     1.03623e+06	
       942.701	     1.04187e+06	
       942.874	     1.04677e+06	
       943.048	     1.05017e+06	
       943.221	     1.05308e+06	
       943.394	     1.05380e+06	
       943.567	     1.05252e+06	
       943.740	     1.04913e+06	
       943.913	     1.04356e+06	
       944.086	     1.03537e+06	
       944.260	     1.02350e+06	
       944.433	     1.00888e+06	
       944.606	     9.91593e+05	
       944.779	     9.72024e+05	
       944.952	     9.51899e+05	
       945.125	     9.29324e+05	
       945.258	     9.10427e+05	
       945.290	     9.05649e+05	
       945.299	     9.04285e+05	
       945.308	     9.02916e+05	
       945.358	     8.95137e+05	
       945.458	     8.79263e+05	
       945.658	     8.45481e+05	
       945.858	     8.08498e+05	
       946.058	     7.75232e+05	
       946.159	     7.58314e+05	
       946.258	     7.41413e+05	
       946.410	     7.15887e+05	
       946.659	     6.72615e+05	
       946.908	     6.27467e+05	
       947.108	     5.89498e+05	
       947.158	     5.79715e+05	
       947.208	     5.69822e+05	
       947.308	     5.49722e+05	
       947.509	     5.07248e+05	
       947.709	     4.61604e+05	
       947.735	     4.55386e+05	
       947.909	     4.11219e+05	
       948.083	     3.63756e+05	
       948.257	     3.13030e+05	
       948.317	     2.94452e+05	
       948.431	     2.57103e+05	
       948.546	     2.17246e+05	
       948.660	     1.75210e+05	
       948.727	     1.50922e+05	
       948.761	     1.39083e+05	
       948.771	     1.35666e+05	
       948.774	     1.34649e+05	
       948.777	     1.33637e+05	
       948.827	     1.17603e+05	
       948.835	     1.15474e+05	
       948.893	     1.03495e+05	
       948.922	     1.01582e+05	
       948.951	     1.01414e+05	
       948.966	     1.01434e+05	
       948.980	     1.01453e+05	
       948.994	     1.01473e+05	
       949.009	     1.01493e+05	
       949.023	     1.01512e+05	
       949.037	     1.01531e+05	
       949.052	     1.01551e+05	
       949.066	     1.01570e+05	
       949.095	     1.01609e+05	
       949.153	     1.03854e+05	
       949.230	     1.21524e+05	
       949.258	     1.30758e+05	
       949.269	     1.34496e+05	
       949.280	     1.38293e+05	
       949.330	     1.56044e+05	
       949.360	     1.67002e+05	
       949.430	     1.93516e+05	
       949.500	     2.19848e+05	
       949.640	     2.69971e+05	
       949.781	     3.16371e+05	
       949.795	     3.20763e+05	
       949.879	     3.46709e+05	
       949.921	     3.59354e+05	
       949.963	     3.72021e+05	
       950.131	     4.20530e+05	
       950.299	     4.66275e+05	
       950.467	     5.08526e+05	
       950.635	     5.48764e+05	
       950.719	     5.68091e+05	
       950.804	     5.86912e+05	
       950.888	     6.05485e+05	
       951.056	     6.41959e+05	
       951.224	     6.77356e+05	
       951.392	     7.12177e+05	
       951.728	     7.80259e+05	
       951.896	     8.15224e+05	
       952.065	     8.49955e+05	
       952.233	     8.86897e+05	
       952.401	     9.26503e+05	
       952.569	     9.64928e+05	
       952.688	     9.91597e+05	
       952.737	     1.00263e+06	
       952.788	     1.01407e+06	
       952.888	     1.03634e+06	
       953.089	     1.07990e+06	
       953.489	     1.16833e+06	
       953.889	     1.25770e+06	
       954.290	     1.33975e+06	
       954.690	     1.41718e+06	
       955.090	     1.48765e+06	
       955.491	     1.55178e+06	
       955.768	     1.59376e+06	
       955.891	     1.61010e+06	
       956.014	     1.62574e+06	
       956.260	     1.66100e+06	
       956.506	     1.69442e+06	
       956.999	     1.75614e+06	
       957.491	     1.81131e+06	
       957.984	     1.86059e+06	
       958.476	     1.90431e+06	
       958.648	     1.91812e+06	
       958.969	     1.94182e+06	
       959.289	     1.96284e+06	
       959.429	     1.97139e+06	
       959.609	     1.98163e+06	
       959.929	     1.99773e+06	
       960.430	     2.01695e+06	
       960.680	     2.03197e+06	
       960.930	     2.04305e+06	
       961.180	     2.05037e+06	
       961.431	     2.05421e+06	
       961.681	     2.05449e+06	
       961.931	     2.05153e+06	
       962.181	     2.04541e+06	
       962.431	     2.03607e+06	
       962.682	     2.02393e+06	
       962.932	     2.00874e+06	
       963.182	     1.99082e+06	
       963.432	     1.97050e+06	
       963.634	     1.95222e+06	
       963.933	     1.92273e+06	
       964.231	     1.88957e+06	
       964.529	     1.85388e+06	
       964.827	     1.81581e+06	
       965.126	     1.77543e+06	
       965.722	     1.68830e+06	
       966.319	     1.59425e+06	
       966.915	     1.49448e+06	
       966.991	     1.48127e+06	
       967.512	     1.38871e+06	
       967.772	     1.34066e+06	
       968.032	     1.29174e+06	
       968.292	     1.24077e+06	
       968.552	     1.18828e+06	
       968.813	     1.13399e+06	
       968.849	     1.12633e+06	
       969.073	     1.07769e+06	
       969.297	     1.02680e+06	
       969.521	     9.73561e+05	
       969.564	     9.63112e+05	
       969.745	     9.17885e+05	
       969.927	     8.70664e+05	
       970.108	     8.21187e+05	
       970.289	     7.68873e+05	
       970.470	     7.13299e+05	
       970.651	     6.53291e+05	
       970.706	     6.33710e+05	
       970.790	     6.03242e+05	
       970.832	     5.87478e+05	
       970.874	     5.71377e+05	
       971.042	     5.03321e+05	
       971.073	     4.89913e+05	
       971.211	     4.27373e+05	
       971.348	     3.56954e+05	
       971.385	     3.36273e+05	
       971.467	     2.88473e+05	
       971.485	     2.77530e+05	
       971.585	     2.15357e+05	
       971.644	     1.80779e+05	
       971.703	     1.52100e+05	
       971.732	     1.42464e+05	
       971.762	     1.37245e+05	
       971.778	     1.36474e+05	
       971.792	     1.36382e+05	
       971.806	     1.36401e+05	
       971.821	     1.36427e+05	
       971.827	     1.36437e+05	
       971.833	     1.36448e+05	
       971.836	     1.36453e+05	
       971.839	     1.36458e+05	
       971.851	     1.36479e+05	
       971.866	     1.36505e+05	
       971.880	     1.36529e+05	
       971.910	     1.37087e+05	
       971.969	     1.50213e+05	
       972.037	     1.83299e+05	
       972.087	     2.12961e+05	
       972.137	     2.44429e+05	
       972.150	     2.52678e+05	
       972.237	     3.06452e+05	
       972.324	     3.56734e+05	
       972.499	     4.45902e+05	
       972.548	     4.68465e+05	
       972.673	     5.22349e+05	
       972.798	     5.71704e+05	
       972.923	     6.17084e+05	
       973.048	     6.58864e+05	
       973.173	     6.98030e+05	
       973.298	     7.34520e+05	
       973.351	     7.49408e+05	
       973.423	     7.69200e+05	
       973.548	     8.02504e+05	
       973.746	     8.52198e+05	
       973.943	     8.99611e+05	
       974.140	     9.44190e+05	
       974.337	     9.87597e+05	
       974.731	     1.07190e+06	
       975.126	     1.15108e+06	
       975.400	     1.20380e+06	
       975.520	     1.22502e+06	
       975.640	     1.24637e+06	
       975.880	     1.28919e+06	
       976.361	     1.37243e+06	
       976.601	     1.41491e+06	
       976.841	     1.45945e+06	
       977.081	     1.50692e+06	
       977.321	     1.55681e+06	
       977.802	     1.64867e+06	
       978.282	     1.74277e+06	
       978.522	     1.79159e+06	
       978.762	     1.84447e+06	
       979.003	     1.90288e+06	
       979.181	     1.95000e+06	
       979.243	     1.96737e+06	
       979.305	     1.98534e+06	
       979.429	     2.01686e+06	
       979.553	     2.04996e+06	
       979.801	     2.12253e+06	
       979.925	     2.16280e+06	
       980.049	     2.19741e+06	
       980.173	     2.22781e+06	
       980.298	     2.25954e+06	
       980.422	     2.29271e+06	
       980.546	     2.32720e+06	
       980.794	     2.38953e+06	
       981.042	     2.44627e+06	
       981.290	     2.50643e+06	
       981.636	     2.58799e+06	
       981.787	     2.62417e+06	
       982.207	     2.72503e+06	
       982.779	     2.86093e+06	
       983.066	     2.93036e+06	
       983.351	     3.00185e+06	
       983.637	     3.07998e+06	
       983.923	     3.16277e+06	
       984.496	     3.32047e+06	
       985.067	     3.47400e+06	
       985.804	     3.67331e+06	
       986.211	     3.78461e+06	
       986.415	     3.83871e+06	
       986.618	     3.89331e+06	
       986.821	     3.94169e+06	
       987.026	     3.97383e+06	
       987.229	     4.00497e+06	
