# Koester WD models
# teff = 13250 K (value for the effective temperature for the model. Temperatures are given in K)
# logg = 8.5 log(cm/s2) (value for Log(G) for the model.)
#
#   WAVELENGTH	#           FLUX	
#   (ANGSTROM)	#  (ERG/CM2/S/A)	
##############	################	
       899.230	     3.65892e+04	
       900.518	     3.72970e+04	
       901.953	     3.80987e+04	
       903.094	     3.87465e+04	
       903.794	     3.91483e+04	
       904.235	     3.94034e+04	
       906.518	     4.07474e+04	
       908.450	     4.19176e+04	
       909.241	     4.24043e+04	
       910.032	     4.28956e+04	
       911.193	     4.36264e+04	
       911.613	     4.38928e+04	
       911.824	     4.40260e+04	
       911.929	     4.40923e+04	
       912.034	     4.41589e+04	
       912.139	     4.48060e+04	
       912.244	     4.55069e+04	
       912.349	     4.62461e+04	
       912.454	     4.70331e+04	
       912.559	     4.79074e+04	
       912.664	     4.88197e+04	
       912.770	     4.97597e+04	
       912.875	     5.07059e+04	
       912.886	     5.08033e+04	
       912.980	     5.15736e+04	
       913.085	     5.20433e+04	
       913.284	     5.16999e+04	
       913.435	     5.09617e+04	
       913.483	     5.06733e+04	
       913.531	     5.06883e+04	
       913.627	     5.10656e+04	
       913.772	     4.88257e+04	
       913.818	     4.85558e+04	
       913.820	     4.85602e+04	
       913.822	     4.85662e+04	
       913.872	     4.91314e+04	
       913.972	     5.13035e+04	
       913.979	     5.13003e+04	
       914.072	     4.80004e+04	
       914.165	     4.58123e+04	
       914.351	     5.32868e+04	
       914.499	     4.53831e+04	
       914.537	     4.41947e+04	
       914.575	     4.38428e+04	
       914.652	     4.56781e+04	
       914.804	     5.79718e+04	
       914.841	     5.76401e+04	
       914.956	     4.67375e+04	
       915.071	     4.28815e+04	
       915.186	     4.72112e+04	
       915.301	     6.27737e+04	
       915.416	     6.48616e+04	
       915.420	     6.45641e+04	
       915.531	     4.96928e+04	
       915.609	     4.33841e+04	
       915.643	     4.27194e+04	
       915.677	     4.25761e+04	
       915.745	     4.34906e+04	
       915.881	     6.07433e+04	
       916.017	     8.04364e+04	
       916.153	     7.30430e+04	
       916.289	     4.89752e+04	
       916.379	     4.29446e+04	
       916.421	     4.27612e+04	
       916.425	     4.27612e+04	
       916.429	     4.27627e+04	
       916.479	     4.30103e+04	
       916.580	     5.10279e+04	
       916.680	     7.26386e+04	
       916.780	     9.37966e+04	
       916.880	     1.03983e+05	
       916.980	     1.00881e+05	
       917.080	     8.40169e+04	
       917.180	     6.09701e+04	
       917.182	     6.04961e+04	
       917.280	     4.47237e+04	
       917.378	     4.32682e+04	
       917.575	     6.13704e+04	
       917.771	     1.13193e+05	
       917.967	     1.36945e+05	
       918.163	     1.22243e+05	
       918.359	     7.43467e+04	
       918.510	     4.48255e+04	
       918.556	     4.40351e+04	
       918.602	     4.40436e+04	
       918.694	     4.49499e+04	
       918.878	     8.54934e+04	
       919.062	     1.38972e+05	
       919.201	     1.67304e+05	
       919.241	     1.72702e+05	
       919.246	     1.73302e+05	
       919.251	     1.73886e+05	
       919.301	     1.78255e+05	
       919.402	     1.81578e+05	
       919.502	     1.78674e+05	
       919.602	     1.68744e+05	
       919.702	     1.51555e+05	
       919.802	     1.27613e+05	
       919.902	     9.94141e+04	
       920.002	     6.91549e+04	
       920.102	     4.71123e+04	
       920.163	     4.50819e+04	
       920.189	     4.50903e+04	
       920.202	     4.50991e+04	
       920.215	     4.51076e+04	
       920.267	     4.51513e+04	
       920.372	     5.44228e+04	
       920.476	     8.38790e+04	
       920.580	     1.17092e+05	
       920.684	     1.47686e+05	
       920.788	     1.74640e+05	
       920.892	     1.96722e+05	
       920.996	     2.13700e+05	
       921.100	     2.25363e+05	
       921.204	     2.32295e+05	
       921.308	     2.35184e+05	
       921.413	     2.33350e+05	
       921.517	     2.26747e+05	
       921.621	     2.14819e+05	
       921.725	     1.96788e+05	
       921.829	     1.75891e+05	
       921.933	     1.50607e+05	
       922.037	     1.20593e+05	
       922.141	     8.71566e+04	
       922.245	     5.67315e+04	
       922.294	     4.81685e+04	
       922.350	     4.65549e+04	
       922.405	     4.65892e+04	
       922.515	     4.83246e+04	
       922.625	     7.44589e+04	
       922.660	     8.53722e+04	
       922.735	     1.10279e+05	
       922.810	     1.34317e+05	
       922.960	     1.77386e+05	
       923.110	     2.14723e+05	
       923.260	     2.47865e+05	
       923.411	     2.73143e+05	
       923.561	     2.91065e+05	
       923.711	     3.02967e+05	
       923.861	     3.09917e+05	
       924.011	     3.11540e+05	
       924.161	     3.06836e+05	
       924.312	     2.95084e+05	
       924.462	     2.75889e+05	
       924.612	     2.50937e+05	
       924.762	     2.20869e+05	
       924.912	     1.85334e+05	
       925.062	     1.43982e+05	
       925.212	     9.43910e+04	
       925.241	     8.44152e+04	
       925.363	     5.16560e+04	
       925.484	     4.87402e+04	
       925.605	     5.18382e+04	
       925.726	     8.49974e+04	
       925.847	     1.26915e+05	
       925.968	     1.64835e+05	
       926.089	     1.97955e+05	
       926.210	     2.28746e+05	
       926.295	     2.48705e+05	
       926.332	     2.57128e+05	
       926.369	     2.65176e+05	
       926.443	     2.81551e+05	
       926.591	     3.13239e+05	
       926.739	     3.41111e+05	
       926.887	     3.64309e+05	
       927.035	     3.81537e+05	
       927.183	     3.94832e+05	
       927.332	     4.04951e+05	
       927.480	     4.12617e+05	
       927.628	     4.17577e+05	
       927.776	     4.19754e+05	
       927.924	     4.18630e+05	
       927.962	     4.17816e+05	
       928.072	     4.13807e+05	
       928.182	     4.06984e+05	
       928.293	     3.97732e+05	
       928.403	     3.86001e+05	
       928.513	     3.71676e+05	
       928.623	     3.56750e+05	
       928.733	     3.40813e+05	
       928.843	     3.23713e+05	
       928.953	     3.04574e+05	
       928.985	     2.98759e+05	
       929.037	     2.89037e+05	
       929.063	     2.83971e+05	
       929.089	     2.78750e+05	
       929.125	     2.71257e+05	
       929.193	     2.56335e+05	
       929.261	     2.40657e+05	
       929.398	     2.06677e+05	
       929.493	     1.80982e+05	
       929.526	     1.71609e+05	
       929.534	     1.69012e+05	
       929.543	     1.66379e+05	
       929.593	     1.50872e+05	
       929.617	     1.43138e+05	
       929.655	     1.30391e+05	
       929.693	     1.17158e+05	
       929.769	     8.97588e+04	
       929.827	     7.02052e+04	
       929.883	     5.61016e+04	
       929.910	     5.26575e+04	
       929.939	     5.20040e+04	
       929.954	     5.20091e+04	
       929.968	     5.20197e+04	
       929.982	     5.20301e+04	
       929.996	     5.20408e+04	
       930.010	     5.20512e+04	
       930.024	     5.20618e+04	
       930.038	     5.20722e+04	
       930.052	     5.20829e+04	
       930.081	     5.21109e+04	
       930.137	     5.63068e+04	
       930.201	     7.32189e+04	
       930.247	     8.89127e+04	
       930.249	     8.96344e+04	
       930.251	     9.03588e+04	
       930.301	     1.08748e+05	
       930.326	     1.17455e+05	
       930.402	     1.43990e+05	
       930.478	     1.68466e+05	
       930.630	     2.12004e+05	
       930.633	     2.12809e+05	
       930.782	     2.51325e+05	
       930.931	     2.86386e+05	
       931.080	     3.17731e+05	
       931.229	     3.47168e+05	
       931.379	     3.75543e+05	
       931.528	     4.04631e+05	
       931.788	     4.56232e+05	
       931.814	     4.61022e+05	
       931.826	     4.63209e+05	
       931.838	     4.65377e+05	
       931.888	     4.74258e+05	
       931.988	     4.91138e+05	
       932.188	     5.17690e+05	
       932.389	     5.38987e+05	
       932.589	     5.55647e+05	
       932.789	     5.69615e+05	
       932.989	     5.80855e+05	
       933.189	     5.89529e+05	
       933.347	     5.94625e+05	
       933.375	     5.95357e+05	
       933.377	     5.95407e+05	
       933.389	     5.95706e+05	
       933.403	     5.96039e+05	
       933.432	     5.96554e+05	
       933.460	     5.97000e+05	
       933.542	     5.97974e+05	
       933.652	     5.98492e+05	
       933.762	     5.98150e+05	
       933.872	     5.96790e+05	
       933.982	     5.93686e+05	
       934.092	     5.88521e+05	
       934.202	     5.81826e+05	
       934.312	     5.73579e+05	
       934.413	     5.64752e+05	
       934.422	     5.63916e+05	
       934.533	     5.52898e+05	
       934.652	     5.39286e+05	
       934.771	     5.24109e+05	
       934.890	     5.08193e+05	
       935.009	     4.91144e+05	
       935.026	     4.88628e+05	
       935.128	     4.73988e+05	
       935.230	     4.59920e+05	
       935.332	     4.45000e+05	
       935.434	     4.29248e+05	
       935.537	     4.12636e+05	
       935.639	     3.95300e+05	
       935.741	     3.77805e+05	
       935.843	     3.59389e+05	
       935.945	     3.39587e+05	
       935.950	     3.38585e+05	
       936.047	     3.18985e+05	
       936.144	     2.98504e+05	
       936.338	     2.54659e+05	
       936.464	     2.22134e+05	
       936.532	     2.02664e+05	
       936.601	     1.81617e+05	
       936.645	     1.67109e+05	
       936.714	     1.42996e+05	
       936.737	     1.34513e+05	
       936.829	     9.94173e+04	
       936.887	     7.83136e+04	
       936.944	     6.21985e+04	
       936.973	     5.80453e+04	
       937.001	     5.75295e+04	
       937.015	     5.75386e+04	
       937.029	     5.75502e+04	
       937.043	     5.75615e+04	
       937.058	     5.75738e+04	
       937.072	     5.75854e+04	
       937.086	     5.75967e+04	
       937.101	     5.76090e+04	
       937.115	     5.76203e+04	
       937.143	     5.76454e+04	
       937.200	     6.24234e+04	
       937.314	     9.96840e+04	
       937.428	     1.43608e+05	
       937.493	     1.66904e+05	
       937.542	     1.83509e+05	
       937.593	     1.99891e+05	
       937.694	     2.29526e+05	
       937.794	     2.56375e+05	
       937.894	     2.81061e+05	
       937.950	     2.94203e+05	
       937.988	     3.02827e+05	
       937.994	     3.04176e+05	
       938.000	     3.05559e+05	
       938.050	     3.16949e+05	
       938.150	     3.38733e+05	
       938.250	     3.60221e+05	
       938.450	     3.99874e+05	
       938.650	     4.37655e+05	
       938.788	     4.62534e+05	
       938.809	     4.66269e+05	
       938.851	     4.73677e+05	
       938.914	     4.84635e+05	
       938.924	     4.86438e+05	
       939.040	     5.05800e+05	
       939.155	     5.27511e+05	
       939.271	     5.49622e+05	
       939.502	     5.93918e+05	
       939.733	     6.37388e+05	
       939.965	     6.78999e+05	
       940.081	     6.98898e+05	
       940.196	     7.18121e+05	
       940.312	     7.33939e+05	
       940.427	     7.48607e+05	
       940.576	     7.66655e+05	
       940.658	     7.76168e+05	
       940.740	     7.85401e+05	
       940.905	     8.03290e+05	
       941.069	     8.20405e+05	
       941.233	     8.36678e+05	
       941.397	     8.51717e+05	
       941.561	     8.65157e+05	
       941.725	     8.77620e+05	
       941.889	     8.89046e+05	
       942.054	     8.99403e+05	
       942.218	     9.08816e+05	
       942.382	     9.16802e+05	
       942.546	     9.23427e+05	
       942.701	     9.28463e+05	
       942.710	     9.28718e+05	
       942.874	     9.32601e+05	
       943.048	     9.35139e+05	
       943.221	     9.35639e+05	
       943.394	     9.34178e+05	
       943.567	     9.30976e+05	
       943.740	     9.26028e+05	
       943.913	     9.19362e+05	
       944.086	     9.10189e+05	
       944.260	     8.96595e+05	
       944.433	     8.80739e+05	
       944.606	     8.62892e+05	
       944.779	     8.43273e+05	
       944.943	     8.23814e+05	
       944.952	     8.22705e+05	
       945.125	     8.00343e+05	
       945.308	     7.75028e+05	
       945.490	     7.48843e+05	
       945.672	     7.21841e+05	
       945.854	     6.93962e+05	
       946.036	     6.71057e+05	
       946.218	     6.48170e+05	
       946.401	     6.24514e+05	
       946.583	     5.99727e+05	
       946.736	     5.77934e+05	
       946.765	     5.73944e+05	
       946.947	     5.48211e+05	
       947.158	     5.16720e+05	
       947.264	     5.00270e+05	
       947.369	     4.83224e+05	
       947.476	     4.65440e+05	
       947.581	     4.46678e+05	
       947.687	     4.26930e+05	
       947.792	     4.06095e+05	
       947.898	     3.83768e+05	
       947.923	     3.78197e+05	
       948.003	     3.60429e+05	
       948.083	     3.41714e+05	
       948.243	     3.01851e+05	
       948.261	     2.97044e+05	
       948.403	     2.56415e+05	
       948.546	     2.09219e+05	
       948.599	     1.89614e+05	
       948.661	     1.65263e+05	
       948.688	     1.54105e+05	
       948.777	     1.16111e+05	
       948.835	     9.24184e+04	
       948.893	     7.34815e+04	
       948.922	     6.84720e+04	
       948.951	     6.79803e+04	
       948.966	     6.79941e+04	
       948.980	     6.80073e+04	
       948.994	     6.80205e+04	
       949.009	     6.80343e+04	
       949.023	     6.80475e+04	
       949.037	     6.80607e+04	
       949.052	     6.80749e+04	
       949.066	     6.80877e+04	
       949.095	     6.81154e+04	
       949.153	     7.37435e+04	
       949.230	     1.00529e+05	
       949.258	     1.12096e+05	
       949.269	     1.16863e+05	
       949.280	     1.21689e+05	
       949.330	     1.43448e+05	
       949.360	     1.56280e+05	
       949.430	     1.85027e+05	
       949.500	     2.11728e+05	
       949.640	     2.59710e+05	
       949.781	     3.01471e+05	
       949.795	     3.05390e+05	
       949.879	     3.28017e+05	
       949.921	     3.38868e+05	
       949.963	     3.49524e+05	
       950.131	     3.90129e+05	
       950.299	     4.27941e+05	
       950.467	     4.62552e+05	
       950.635	     4.94823e+05	
       950.719	     5.10220e+05	
       950.804	     5.25186e+05	
       950.888	     5.39845e+05	
       951.056	     5.68405e+05	
       951.224	     5.96045e+05	
       951.392	     6.23418e+05	
       951.728	     6.77412e+05	
       952.064	     7.29029e+05	
       952.233	     7.56989e+05	
       952.401	     7.89080e+05	
       952.570	     8.21049e+05	
       952.738	     8.53219e+05	
       953.075	     9.17568e+05	
       953.413	     9.81368e+05	
       953.750	     1.04678e+06	
       953.918	     1.07956e+06	
       954.087	     1.11010e+06	
       954.256	     1.13856e+06	
       954.425	     1.16730e+06	
       954.593	     1.19636e+06	
       954.762	     1.22572e+06	
       954.859	     1.24257e+06	
       954.930	     1.25482e+06	
       955.099	     1.28370e+06	
       955.437	     1.34160e+06	
       955.725	     1.39095e+06	
       956.014	     1.43425e+06	
       956.303	     1.47703e+06	
       956.592	     1.51901e+06	
       957.169	     1.59998e+06	
       957.458	     1.63849e+06	
       957.747	     1.67521e+06	
       958.036	     1.70974e+06	
       958.324	     1.74107e+06	
       958.514	     1.76005e+06	
       958.613	     1.76933e+06	
       958.901	     1.79413e+06	
       959.289	     1.82141e+06	
       959.676	     1.83965e+06	
       959.697	     1.84044e+06	
       960.063	     1.85129e+06	
       960.430	     1.85554e+06	
       960.796	     1.85507e+06	
       961.162	     1.84764e+06	
       961.529	     1.83374e+06	
       961.895	     1.81345e+06	
       962.261	     1.78752e+06	
       962.628	     1.75611e+06	
       962.994	     1.72018e+06	
       963.360	     1.68160e+06	
       963.727	     1.64030e+06	
       963.955	     1.61389e+06	
       964.093	     1.59763e+06	
       964.231	     1.58085e+06	
       964.507	     1.54695e+06	
       965.060	     1.47726e+06	
       966.165	     1.33410e+06	
       966.507	     1.28853e+06	
       967.269	     1.18486e+06	
       967.651	     1.13139e+06	
       968.032	     1.07703e+06	
       968.292	     1.03839e+06	
       968.413	     1.02014e+06	
       968.543	     1.00028e+06	
       968.795	     9.61045e+05	
       969.046	     9.20440e+05	
       969.297	     8.78169e+05	
       969.548	     8.33399e+05	
       969.672	     8.10459e+05	
       969.799	     7.86039e+05	
       969.927	     7.60627e+05	
       970.054	     7.34206e+05	
       970.181	     7.06670e+05	
       970.308	     6.77799e+05	
       970.435	     6.47555e+05	
       970.504	     6.30464e+05	
       970.562	     6.15661e+05	
       970.689	     5.81201e+05	
       970.874	     5.26154e+05	
       971.059	     4.63756e+05	
       971.142	     4.32814e+05	
       971.245	     3.90211e+05	
       971.348	     3.42104e+05	
       971.451	     2.86513e+05	
       971.523	     2.42143e+05	
       971.554	     2.21522e+05	
       971.585	     1.99983e+05	
       971.591	     1.95872e+05	
       971.644	     1.57832e+05	
       971.647	     1.55789e+05	
       971.703	     1.19240e+05	
       971.732	     1.04658e+05	
       971.762	     9.51167e+04	
       971.778	     9.28994e+04	
       971.792	     9.23314e+04	
       971.806	     9.22959e+04	
       971.821	     9.23138e+04	
       971.827	     9.23210e+04	
       971.833	     9.23280e+04	
       971.836	     9.23317e+04	
       971.839	     9.23352e+04	
       971.851	     9.23496e+04	
       971.866	     9.23679e+04	
       971.880	     9.23930e+04	
       971.910	     9.42537e+04	
       971.969	     1.16275e+05	
       972.037	     1.60703e+05	
       972.087	     1.96860e+05	
       972.137	     2.31851e+05	
       972.150	     2.40584e+05	
       972.237	     2.94648e+05	
       972.324	     3.42132e+05	
       972.499	     4.21511e+05	
       972.548	     4.41054e+05	
       972.673	     4.86771e+05	
       972.798	     5.27605e+05	
       972.923	     5.64604e+05	
       973.048	     5.98244e+05	
       973.173	     6.29305e+05	
       973.298	     6.57994e+05	
       973.351	     6.69725e+05	
       973.423	     6.85260e+05	
       973.548	     7.11247e+05	
       973.746	     7.49939e+05	
       973.943	     7.86630e+05	
       974.140	     8.20992e+05	
       974.337	     8.54136e+05	
       974.731	     9.18042e+05	
       975.126	     9.77846e+05	
       975.400	     1.01798e+06	
       975.520	     1.03413e+06	
       975.640	     1.05032e+06	
       975.880	     1.08308e+06	
       976.361	     1.14690e+06	
       976.601	     1.17972e+06	
       976.841	     1.21420e+06	
       977.081	     1.25103e+06	
       977.321	     1.29006e+06	
       977.802	     1.36244e+06	
       978.042	     1.40079e+06	
       978.282	     1.43771e+06	
       978.522	     1.47723e+06	
       978.762	     1.52048e+06	
       979.003	     1.56822e+06	
       979.181	     1.60698e+06	
       979.243	     1.62133e+06	
       979.305	     1.63618e+06	
       979.429	     1.66242e+06	
       979.553	     1.69007e+06	
       979.801	     1.75059e+06	
       979.925	     1.78439e+06	
       980.049	     1.81367e+06	
       980.173	     1.83925e+06	
       980.298	     1.86584e+06	
       980.422	     1.89355e+06	
       980.546	     1.92252e+06	
       980.794	     1.97559e+06	
       981.042	     2.02402e+06	
       981.290	     2.07475e+06	
       981.636	     2.14498e+06	
       981.787	     2.17623e+06	
       982.207	     2.26200e+06	
       982.779	     2.37846e+06	
       983.066	     2.43937e+06	
       983.351	     2.50216e+06	
       983.637	     2.56985e+06	
       983.923	     2.64186e+06	
       984.496	     2.78281e+06	
       984.660	     2.82348e+06	
       985.640	     3.05246e+06	
       986.129	     3.17577e+06	
       986.373	     3.23543e+06	
       986.618	     3.29575e+06	
       986.863	     3.34558e+06	
