# Koester WD models
# teff = 13750 K (value for the effective temperature for the model. Temperatures are given in K)
# logg = 9.5 log(cm/s2) (value for Log(G) for the model.)
#
#   WAVELENGTH	#           FLUX	
#   (ANGSTROM)	#  (ERG/CM2/S/A)	
##############	################	
       899.230	     1.11421e+05	
       901.267	     1.14484e+05	
       902.751	     1.16759e+05	
       904.235	     1.19071e+05	
       905.166	     1.20540e+05	
       907.203	     1.23805e+05	
       908.450	     1.25837e+05	
       909.241	     1.27140e+05	
       910.032	     1.28453e+05	
       911.193	     1.30397e+05	
       911.613	     1.31102e+05	
       911.824	     1.31455e+05	
       911.929	     1.31630e+05	
       912.034	     1.31805e+05	
       912.139	     1.33111e+05	
       912.244	     1.34461e+05	
       912.349	     1.35842e+05	
       912.454	     1.37233e+05	
       912.559	     1.38635e+05	
       912.664	     1.40041e+05	
       912.770	     1.41444e+05	
       912.875	     1.42828e+05	
       912.886	     1.42971e+05	
       913.037	     1.44866e+05	
       913.085	     1.45445e+05	
       913.284	     1.47690e+05	
       913.531	     1.49997e+05	
       913.649	     1.50615e+05	
       913.736	     1.51297e+05	
       913.779	     1.51600e+05	
       913.822	     1.51845e+05	
       913.994	     1.51358e+05	
       914.165	     1.51899e+05	
       914.336	     1.50900e+05	
       914.439	     1.49332e+05	
       914.507	     1.48374e+05	
       914.575	     1.48161e+05	
       914.712	     1.49799e+05	
       914.848	     1.48322e+05	
       914.897	     1.45629e+05	
       914.984	     1.41330e+05	
       915.071	     1.39415e+05	
       915.245	     1.47664e+05	
       915.419	     1.48904e+05	
       915.544	     1.36264e+05	
       915.594	     1.31858e+05	
       915.609	     1.30690e+05	
       915.643	     1.29315e+05	
       915.677	     1.28987e+05	
       915.745	     1.31724e+05	
       915.881	     1.49392e+05	
       916.017	     1.64463e+05	
       916.153	     1.55908e+05	
       916.289	     1.32611e+05	
       916.379	     1.22977e+05	
       916.421	     1.21671e+05	
       916.425	     1.21657e+05	
       916.429	     1.21662e+05	
       916.479	     1.23376e+05	
       916.580	     1.36167e+05	
       916.680	     1.59136e+05	
       916.780	     1.81563e+05	
       916.880	     1.93284e+05	
       916.980	     1.87603e+05	
       917.080	     1.67986e+05	
       917.180	     1.41768e+05	
       917.182	     1.41254e+05	
       917.280	     1.22059e+05	
       917.378	     1.16678e+05	
       917.575	     1.43491e+05	
       917.771	     2.05709e+05	
       917.967	     2.40071e+05	
       918.163	     2.17279e+05	
       918.359	     1.53879e+05	
       918.510	     1.18713e+05	
       918.556	     1.15422e+05	
       918.602	     1.14625e+05	
       918.694	     1.19044e+05	
       918.878	     1.69040e+05	
       919.062	     2.42861e+05	
       919.201	     2.85811e+05	
       919.241	     2.94547e+05	
       919.246	     2.95515e+05	
       919.251	     2.96455e+05	
       919.301	     3.03791e+05	
       919.402	     3.09507e+05	
       919.502	     3.04822e+05	
       919.602	     2.87704e+05	
       919.702	     2.60071e+05	
       919.802	     2.23929e+05	
       919.902	     1.83677e+05	
       920.002	     1.46185e+05	
       920.102	     1.20683e+05	
       920.163	     1.15924e+05	
       920.189	     1.15390e+05	
       920.202	     1.15304e+05	
       920.215	     1.15294e+05	
       920.267	     1.16092e+05	
       920.372	     1.30173e+05	
       920.476	     1.64310e+05	
       920.580	     2.07513e+05	
       920.684	     2.54982e+05	
       920.788	     2.96778e+05	
       920.892	     3.34671e+05	
       920.996	     3.63212e+05	
       921.100	     3.84006e+05	
       921.204	     3.96233e+05	
       921.308	     4.00754e+05	
       921.413	     3.97430e+05	
       921.517	     3.85627e+05	
       921.621	     3.65150e+05	
       921.725	     3.36813e+05	
       921.829	     3.00160e+05	
       921.933	     2.59505e+05	
       922.037	     2.13360e+05	
       922.141	     1.68168e+05	
       922.245	     1.32199e+05	
       922.294	     1.21695e+05	
       922.350	     1.18475e+05	
       922.405	     1.18215e+05	
       922.515	     1.22063e+05	
       922.625	     1.52455e+05	
       922.660	     1.66109e+05	
       922.735	     1.99556e+05	
       922.810	     2.34748e+05	
       922.960	     3.02611e+05	
       923.110	     3.66307e+05	
       923.260	     4.20791e+05	
       923.411	     4.65509e+05	
       923.561	     4.98907e+05	
       923.711	     5.20898e+05	
       923.861	     5.32814e+05	
       924.011	     5.35418e+05	
       924.161	     5.27382e+05	
       924.312	     5.07864e+05	
       924.462	     4.75449e+05	
       924.612	     4.31108e+05	
       924.762	     3.78907e+05	
       924.912	     3.17339e+05	
       925.062	     2.50518e+05	
       925.212	     1.79127e+05	
       925.241	     1.65817e+05	
       925.363	     1.27190e+05	
       925.484	     1.23188e+05	
       925.605	     1.27609e+05	
       925.726	     1.66916e+05	
       925.847	     2.24830e+05	
       925.968	     2.83576e+05	
       926.089	     3.39521e+05	
       926.210	     3.93060e+05	
       926.220	     3.97182e+05	
       926.295	     4.27473e+05	
       926.332	     4.42635e+05	
       926.369	     4.57422e+05	
       926.517	     5.15143e+05	
       926.665	     5.65612e+05	
       926.813	     6.08963e+05	
       926.961	     6.44740e+05	
       927.109	     6.72678e+05	
       927.257	     6.95272e+05	
       927.406	     7.12752e+05	
       927.554	     7.24615e+05	
       927.702	     7.31702e+05	
       927.850	     7.33929e+05	
       927.998	     7.31234e+05	
       928.038	     7.29355e+05	
       928.110	     7.23660e+05	
       928.146	     7.20119e+05	
       928.182	     7.16110e+05	
       928.327	     6.95228e+05	
       928.471	     6.66794e+05	
       928.615	     6.30700e+05	
       928.717	     6.01332e+05	
       928.759	     5.88266e+05	
       928.903	     5.45974e+05	
       928.917	     5.41535e+05	
       929.089	     4.82800e+05	
       929.261	     4.15309e+05	
       929.325	     3.88995e+05	
       929.434	     3.40049e+05	
       929.543	     2.88998e+05	
       929.652	     2.34628e+05	
       929.719	     2.00572e+05	
       929.753	     1.83944e+05	
       929.755	     1.82960e+05	
       929.761	     1.80017e+05	
       929.769	     1.76178e+05	
       929.819	     1.54536e+05	
       929.827	     1.51459e+05	
       929.883	     1.35352e+05	
       929.910	     1.31917e+05	
       929.939	     1.30914e+05	
       929.954	     1.30871e+05	
       929.968	     1.30885e+05	
       929.982	     1.30910e+05	
       929.996	     1.30934e+05	
       930.010	     1.30959e+05	
       930.024	     1.30984e+05	
       930.038	     1.31008e+05	
       930.052	     1.31033e+05	
       930.081	     1.31165e+05	
       930.137	     1.35815e+05	
       930.201	     1.55321e+05	
       930.247	     1.75420e+05	
       930.249	     1.76356e+05	
       930.251	     1.77297e+05	
       930.301	     2.02099e+05	
       930.326	     2.14377e+05	
       930.402	     2.53960e+05	
       930.478	     2.92543e+05	
       930.630	     3.65864e+05	
       930.633	     3.67290e+05	
       930.782	     4.34171e+05	
       930.931	     4.97302e+05	
       931.080	     5.55390e+05	
       931.229	     6.09689e+05	
       931.379	     6.66520e+05	
       931.528	     7.21391e+05	
       931.677	     7.72747e+05	
       931.788	     8.07697e+05	
       931.814	     8.15567e+05	
       931.826	     8.19155e+05	
       931.838	     8.22705e+05	
       931.888	     8.37175e+05	
       931.988	     8.64441e+05	
       932.188	     9.06623e+05	
       932.389	     9.42742e+05	
       932.589	     9.73118e+05	
       932.789	     9.97754e+05	
       932.989	     1.01628e+06	
       933.189	     1.03062e+06	
       933.347	     1.03894e+06	
       933.375	     1.04012e+06	
       933.377	     1.04021e+06	
       933.389	     1.04068e+06	
       933.403	     1.04122e+06	
       933.432	     1.04217e+06	
       933.460	     1.04302e+06	
       933.542	     1.04497e+06	
       933.652	     1.04626e+06	
       933.762	     1.04601e+06	
       933.872	     1.04408e+06	
       933.982	     1.03960e+06	
       934.092	     1.03215e+06	
       934.202	     1.02231e+06	
       934.312	     1.00987e+06	
       934.413	     9.96551e+05	
       934.422	     9.95329e+05	
       934.533	     9.78945e+05	
       934.652	     9.58173e+05	
       934.771	     9.34209e+05	
       934.890	     9.07367e+05	
       935.009	     8.77048e+05	
       935.026	     8.72455e+05	
       935.128	     8.45789e+05	
       935.230	     8.20964e+05	
       935.332	     7.94669e+05	
       935.434	     7.66640e+05	
       935.537	     7.37005e+05	
       935.639	     7.05800e+05	
       935.741	     6.73039e+05	
       935.746	     6.71390e+05	
       935.843	     6.38372e+05	
       935.945	     6.01433e+05	
       936.144	     5.23458e+05	
       936.343	     4.39955e+05	
       936.484	     3.75072e+05	
       936.542	     3.46398e+05	
       936.601	     3.16757e+05	
       936.605	     3.14693e+05	
       936.714	     2.56406e+05	
       936.717	     2.54770e+05	
       936.829	     1.95023e+05	
       936.887	     1.67251e+05	
       936.944	     1.48380e+05	
       936.973	     1.44471e+05	
       937.001	     1.43759e+05	
       937.015	     1.43772e+05	
       937.029	     1.43798e+05	
       937.043	     1.43825e+05	
       937.058	     1.43853e+05	
       937.072	     1.43880e+05	
       937.086	     1.43907e+05	
       937.101	     1.43935e+05	
       937.115	     1.43962e+05	
       937.143	     1.44029e+05	
       937.200	     1.48881e+05	
       937.314	     1.95730e+05	
       937.428	     2.57609e+05	
       937.493	     2.93527e+05	
       937.542	     3.19934e+05	
       937.593	     3.46738e+05	
       937.694	     3.97179e+05	
       937.794	     4.44567e+05	
       937.894	     4.89334e+05	
       937.950	     5.13870e+05	
       937.988	     5.30288e+05	
       937.994	     5.32839e+05	
       938.000	     5.35444e+05	
       938.050	     5.56866e+05	
       938.150	     5.98693e+05	
       938.350	     6.77406e+05	
       938.550	     7.49785e+05	
       938.587	     7.62791e+05	
       938.751	     8.18404e+05	
       938.883	     8.61802e+05	
       938.914	     8.71739e+05	
       939.077	     9.24323e+05	
       939.271	     9.94163e+05	
       939.465	     1.05906e+06	
       939.659	     1.11963e+06	
       939.854	     1.17717e+06	
       940.048	     1.23302e+06	
       940.132	     1.25600e+06	
       940.242	     1.28435e+06	
       940.284	     1.29417e+06	
       940.436	     1.32866e+06	
       940.588	     1.36134e+06	
       940.740	     1.39209e+06	
       941.045	     1.44863e+06	
       941.197	     1.47419e+06	
       941.349	     1.49800e+06	
       941.501	     1.51769e+06	
       941.653	     1.53608e+06	
       941.958	     1.56902e+06	
       942.262	     1.59697e+06	
       942.566	     1.61787e+06	
       942.693	     1.62478e+06	
       942.870	     1.63253e+06	
       943.048	     1.63802e+06	
       943.225	     1.64105e+06	
       943.402	     1.64082e+06	
       943.579	     1.63770e+06	
       943.756	     1.63149e+06	
       943.933	     1.62210e+06	
       944.111	     1.60868e+06	
       944.288	     1.59040e+06	
       944.465	     1.56806e+06	
       944.642	     1.54157e+06	
       944.819	     1.51246e+06	
       944.996	     1.48169e+06	
       945.039	     1.47371e+06	
       945.173	     1.44750e+06	
       945.308	     1.41922e+06	
       945.442	     1.38915e+06	
       945.576	     1.35721e+06	
       945.710	     1.32320e+06	
       945.844	     1.28705e+06	
       946.112	     1.21990e+06	
       946.139	     1.21295e+06	
       946.381	     1.15009e+06	
       946.394	     1.14666e+06	
       946.649	     1.07977e+06	
       946.903	     1.00868e+06	
       947.108	     9.48799e+05	
       947.158	     9.33769e+05	
       947.208	     9.18479e+05	
       947.308	     8.87035e+05	
       947.509	     8.21307e+05	
       947.709	     7.49970e+05	
       947.735	     7.40291e+05	
       947.909	     6.71638e+05	
       948.083	     5.96877e+05	
       948.257	     5.16569e+05	
       948.317	     4.87481e+05	
       948.431	     4.28570e+05	
       948.546	     3.64965e+05	
       948.660	     2.97238e+05	
       948.727	     2.56846e+05	
       948.761	     2.37049e+05	
       948.771	     2.31140e+05	
       948.774	     2.29372e+05	
       948.777	     2.27609e+05	
       948.827	     1.99807e+05	
       948.835	     1.95831e+05	
       948.893	     1.73139e+05	
       948.922	     1.68598e+05	
       948.951	     1.67923e+05	
       948.966	     1.67952e+05	
       948.980	     1.67982e+05	
       948.994	     1.68012e+05	
       949.009	     1.68044e+05	
       949.023	     1.68075e+05	
       949.037	     1.68105e+05	
       949.052	     1.68137e+05	
       949.066	     1.68167e+05	
       949.095	     1.68233e+05	
       949.153	     1.73715e+05	
       949.230	     2.06638e+05	
       949.258	     2.22750e+05	
       949.269	     2.29009e+05	
       949.280	     2.35589e+05	
       949.330	     2.65374e+05	
       949.360	     2.83844e+05	
       949.430	     3.26942e+05	
       949.500	     3.69143e+05	
       949.640	     4.48805e+05	
       949.781	     5.21866e+05	
       949.795	     5.28752e+05	
       949.879	     5.69998e+05	
       949.921	     5.89935e+05	
       949.963	     6.09846e+05	
       950.131	     6.86187e+05	
       950.299	     7.57265e+05	
       950.467	     8.23317e+05	
       950.635	     8.85408e+05	
       950.719	     9.15438e+05	
       950.804	     9.44897e+05	
       950.888	     9.73755e+05	
       951.056	     1.02993e+06	
       951.224	     1.08506e+06	
       951.392	     1.13920e+06	
       951.728	     1.24444e+06	
       951.896	     1.29943e+06	
       952.065	     1.35357e+06	
       952.233	     1.41028e+06	
       952.401	     1.47046e+06	
       952.688	     1.56976e+06	
       952.737	     1.58662e+06	
       952.788	     1.60422e+06	
       952.888	     1.63865e+06	
       953.089	     1.70660e+06	
       953.489	     1.84553e+06	
       953.889	     1.98591e+06	
       954.290	     2.11748e+06	
       954.490	     2.18070e+06	
       954.690	     2.24261e+06	
       954.890	     2.30156e+06	
       955.090	     2.35548e+06	
       955.491	     2.45820e+06	
       955.768	     2.52542e+06	
       955.891	     2.55200e+06	
       956.014	     2.57750e+06	
       956.260	     2.63556e+06	
       956.506	     2.69144e+06	
       956.999	     2.79580e+06	
       957.491	     2.89075e+06	
       957.984	     2.97646e+06	
       958.476	     3.05288e+06	
       958.648	     3.07727e+06	
       958.969	     3.11908e+06	
       959.289	     3.15648e+06	
       959.429	     3.17109e+06	
       959.609	     3.18843e+06	
       959.929	     3.21548e+06	
       960.430	     3.24728e+06	
       960.680	     3.27131e+06	
       960.930	     3.28966e+06	
       961.180	     3.30222e+06	
       961.431	     3.30913e+06	
       961.681	     3.31004e+06	
       961.931	     3.30527e+06	
       962.181	     3.29493e+06	
       962.431	     3.27885e+06	
       962.682	     3.25761e+06	
       962.932	     3.23069e+06	
       963.182	     3.19868e+06	
       963.432	     3.16201e+06	
       963.634	     3.12928e+06	
       963.682	     3.12115e+06	
       963.933	     3.07670e+06	
       964.231	     3.01848e+06	
       964.529	     2.95488e+06	
       964.827	     2.88814e+06	
       965.424	     2.74525e+06	
       966.020	     2.59271e+06	
       966.617	     2.43509e+06	
       967.213	     2.27006e+06	
       967.588	     2.16364e+06	
       967.810	     2.09903e+06	
       968.032	     2.03303e+06	
       968.476	     1.89571e+06	
       968.544	     1.87432e+06	
       968.921	     1.75196e+06	
       969.109	     1.68830e+06	
       969.297	     1.62272e+06	
       969.420	     1.57825e+06	
       969.485	     1.55422e+06	
       969.673	     1.48278e+06	
       969.800	     1.43314e+06	
       969.927	     1.38207e+06	
       970.053	     1.32887e+06	
       970.180	     1.27392e+06	
       970.306	     1.21708e+06	
       970.433	     1.15740e+06	
       970.559	     1.09478e+06	
       970.686	     1.02822e+06	
       970.751	     9.91904e+05	
       970.812	     9.56668e+05	
       970.874	     9.20656e+05	
       970.997	     8.44281e+05	
       971.120	     7.61755e+05	
       971.140	     7.48283e+05	
       971.244	     6.71129e+05	
       971.348	     5.86520e+05	
       971.452	     4.93004e+05	
       971.469	     4.77019e+05	
       971.527	     4.20380e+05	
       971.556	     3.91314e+05	
       971.585	     3.61974e+05	
       971.653	     2.95829e+05	
       971.699	     2.57488e+05	
       971.701	     2.55994e+05	
       971.703	     2.54523e+05	
       971.732	     2.36668e+05	
       971.744	     2.31287e+05	
       971.753	     2.28064e+05	
       971.762	     2.25763e+05	
       971.778	     2.23571e+05	
       971.792	     2.23173e+05	
       971.806	     2.23192e+05	
       971.821	     2.23232e+05	
       971.827	     2.23249e+05	
       971.833	     2.23265e+05	
       971.836	     2.23273e+05	
       971.839	     2.23281e+05	
       971.851	     2.23314e+05	
       971.866	     2.23354e+05	
       971.880	     2.23394e+05	
       971.910	     2.25033e+05	
       971.969	     2.51279e+05	
       972.037	     3.08372e+05	
       972.087	     3.57831e+05	
       972.137	     4.08954e+05	
       972.150	     4.22130e+05	
       972.237	     5.07097e+05	
       972.324	     5.86227e+05	
       972.499	     7.25409e+05	
       972.548	     7.60589e+05	
       972.673	     8.44259e+05	
       972.798	     9.20945e+05	
       972.923	     9.90814e+05	
       973.048	     1.05580e+06	
       973.173	     1.11575e+06	
       973.298	     1.17182e+06	
       973.423	     1.22562e+06	
       973.548	     1.27657e+06	
       973.601	     1.29749e+06	
       973.673	     1.32540e+06	
       973.746	     1.35292e+06	
       973.890	     1.40673e+06	
       974.034	     1.45831e+06	
       974.178	     1.50783e+06	
       974.466	     1.60509e+06	
       974.754	     1.69838e+06	
       975.043	     1.78653e+06	
       975.331	     1.87438e+06	
       975.556	     1.93574e+06	
       975.598	     1.94718e+06	
       975.619	     1.95288e+06	
       975.640	     1.95858e+06	
       975.724	     1.98142e+06	
       975.892	     2.02755e+06	
       976.228	     2.11694e+06	
       976.565	     2.20808e+06	
       976.901	     2.30539e+06	
       977.187	     2.39515e+06	
       977.237	     2.41173e+06	
       977.574	     2.51133e+06	
       977.717	     2.55482e+06	
       977.982	     2.63981e+06	
       978.246	     2.71925e+06	
       978.511	     2.80443e+06	
       978.775	     2.89882e+06	
       978.908	     2.95015e+06	
       979.041	     3.00484e+06	
       979.173	     3.06386e+06	
       979.255	     3.10285e+06	
       979.305	     3.12732e+06	
       979.355	     3.14844e+06	
       979.455	     3.19211e+06	
       979.655	     3.28604e+06	
       979.855	     3.39229e+06	
       980.055	     3.49565e+06	
       980.256	     3.58418e+06	
       980.456	     3.67987e+06	
       980.856	     3.86165e+06	
       980.991	     3.91703e+06	
       981.256	     4.03255e+06	
       981.657	     4.20499e+06	
       981.725	     4.23436e+06	
       982.457	     4.55459e+06	
       982.823	     4.71456e+06	
       983.191	     4.87682e+06	
       983.557	     5.04879e+06	
       983.923	     5.23854e+06	
       984.657	     5.61393e+06	
       985.627	     6.09017e+06	
       986.123	     6.34225e+06	
       986.370	     6.46276e+06	
       986.618	     6.58377e+06	
       986.866	     6.68239e+06	
       987.114	     6.75113e+06	
       987.362	     6.81741e+06	
       987.610	     6.87949e+06	
       987.858	     6.93730e+06	
       987.982	     6.96532e+06	
