# Koester WD models
# teff = 13750 K (value for the effective temperature for the model. Temperatures are given in K)
# logg = 9.25 log(cm/s2) (value for Log(G) for the model.)
#
#   WAVELENGTH	#           FLUX	
#   (ANGSTROM)	#  (ERG/CM2/S/A)	
##############	################	
       899.230	     9.92781e+04	
       904.235	     1.06156e+05	
       908.450	     1.12243e+05	
       909.241	     1.13416e+05	
       910.032	     1.14597e+05	
       911.193	     1.16348e+05	
       911.613	     1.16983e+05	
       911.824	     1.17300e+05	
       911.929	     1.17458e+05	
       912.034	     1.17616e+05	
       912.139	     1.19095e+05	
       912.244	     1.20599e+05	
       912.349	     1.22151e+05	
       912.454	     1.23755e+05	
       912.559	     1.25378e+05	
       912.664	     1.27016e+05	
       912.770	     1.28655e+05	
       912.875	     1.30266e+05	
       912.886	     1.30431e+05	
       913.085	     1.33169e+05	
       913.284	     1.35485e+05	
       913.339	     1.35917e+05	
       913.435	     1.36707e+05	
       913.483	     1.37206e+05	
       913.531	     1.37538e+05	
       913.625	     1.37688e+05	
       913.724	     1.37941e+05	
       913.822	     1.38620e+05	
       913.871	     1.38559e+05	
       914.018	     1.36897e+05	
       914.165	     1.36489e+05	
       914.312	     1.36556e+05	
       914.343	     1.36255e+05	
       914.459	     1.32266e+05	
       914.575	     1.29577e+05	
       914.692	     1.33547e+05	
       914.808	     1.36341e+05	
       914.924	     1.28159e+05	
       915.009	     1.21310e+05	
       915.040	     1.20040e+05	
       915.071	     1.19682e+05	
       915.133	     1.22022e+05	
       915.257	     1.35323e+05	
       915.381	     1.41881e+05	
       915.505	     1.25544e+05	
       915.609	     1.13313e+05	
       915.617	     1.12877e+05	
       915.630	     1.12104e+05	
       915.643	     1.11523e+05	
       915.677	     1.10953e+05	
       915.745	     1.14014e+05	
       915.881	     1.37226e+05	
       916.017	     1.58920e+05	
       916.153	     1.48308e+05	
       916.289	     1.18189e+05	
       916.379	     1.06934e+05	
       916.421	     1.05545e+05	
       916.425	     1.05527e+05	
       916.429	     1.05527e+05	
       916.479	     1.07185e+05	
       916.580	     1.21559e+05	
       916.680	     1.50125e+05	
       916.780	     1.78181e+05	
       916.880	     1.91893e+05	
       916.980	     1.86178e+05	
       917.080	     1.63205e+05	
       917.180	     1.31568e+05	
       917.182	     1.30914e+05	
       917.280	     1.07922e+05	
       917.378	     1.02500e+05	
       917.575	     1.32846e+05	
       917.771	     2.05111e+05	
       917.967	     2.42656e+05	
       918.163	     2.18498e+05	
       918.359	     1.48180e+05	
       918.510	     1.05703e+05	
       918.556	     1.02492e+05	
       918.602	     1.01819e+05	
       918.694	     1.05991e+05	
       918.878	     1.64665e+05	
       919.062	     2.45209e+05	
       919.201	     2.91474e+05	
       919.241	     3.00636e+05	
       919.246	     3.01654e+05	
       919.251	     3.02643e+05	
       919.301	     3.10329e+05	
       919.402	     3.16305e+05	
       919.502	     3.11330e+05	
       919.602	     2.93609e+05	
       919.702	     2.64896e+05	
       919.802	     2.25956e+05	
       919.902	     1.82840e+05	
       920.002	     1.40043e+05	
       920.102	     1.08535e+05	
       920.163	     1.03593e+05	
       920.189	     1.03206e+05	
       920.202	     1.03144e+05	
       920.215	     1.03139e+05	
       920.267	     1.03744e+05	
       920.372	     1.20056e+05	
       920.476	     1.60817e+05	
       920.580	     2.08527e+05	
       920.684	     2.58676e+05	
       920.788	     3.02665e+05	
       920.892	     3.41523e+05	
       920.996	     3.70384e+05	
       921.100	     3.91345e+05	
       921.204	     4.03233e+05	
       921.308	     4.07735e+05	
       921.413	     4.04552e+05	
       921.517	     3.93211e+05	
       921.621	     3.72731e+05	
       921.725	     3.43719e+05	
       921.829	     3.06307e+05	
       921.933	     2.63918e+05	
       922.037	     2.15121e+05	
       922.141	     1.65771e+05	
       922.245	     1.23171e+05	
       922.294	     1.09735e+05	
       922.350	     1.06214e+05	
       922.405	     1.06069e+05	
       922.515	     1.10070e+05	
       922.625	     1.47741e+05	
       922.660	     1.63419e+05	
       922.735	     2.00151e+05	
       922.810	     2.37497e+05	
       922.960	     3.08757e+05	
       923.110	     3.73457e+05	
       923.260	     4.27963e+05	
       923.411	     4.71760e+05	
       923.561	     5.03867e+05	
       923.711	     5.25211e+05	
       923.861	     5.37187e+05	
       924.011	     5.39942e+05	
       924.161	     5.32010e+05	
       924.312	     5.12881e+05	
       924.462	     4.81132e+05	
       924.612	     4.37470e+05	
       924.762	     3.85879e+05	
       924.912	     3.23691e+05	
       925.062	     2.54083e+05	
       925.212	     1.77591e+05	
       925.241	     1.62812e+05	
       925.363	     1.15730e+05	
       925.484	     1.10633e+05	
       925.605	     1.16114e+05	
       925.726	     1.63892e+05	
       925.847	     2.26914e+05	
       925.968	     2.88993e+05	
       926.089	     3.46295e+05	
       926.210	     4.00066e+05	
       926.220	     4.04304e+05	
       926.295	     4.34278e+05	
       926.332	     4.48908e+05	
       926.369	     4.63118e+05	
       926.517	     5.20000e+05	
       926.665	     5.70284e+05	
       926.813	     6.12724e+05	
       926.961	     6.47947e+05	
       927.109	     6.75273e+05	
       927.257	     6.97229e+05	
       927.406	     7.14137e+05	
       927.554	     7.25796e+05	
       927.702	     7.32874e+05	
       927.814	     7.34928e+05	
       927.850	     7.35026e+05	
       927.998	     7.32299e+05	
       928.182	     7.17257e+05	
       928.367	     6.89473e+05	
       928.551	     6.47862e+05	
       928.735	     5.98423e+05	
       928.749	     5.94223e+05	
       928.919	     5.44784e+05	
       929.089	     4.88367e+05	
       929.211	     4.42283e+05	
       929.257	     4.24074e+05	
       929.259	     4.23257e+05	
       929.261	     4.22437e+05	
       929.312	     4.01442e+05	
       929.412	     3.56819e+05	
       929.481	     3.24351e+05	
       929.512	     3.09194e+05	
       929.543	     2.93655e+05	
       929.605	     2.61594e+05	
       929.655	     2.34775e+05	
       929.689	     2.16349e+05	
       929.729	     1.94691e+05	
       929.769	     1.73062e+05	
       929.827	     1.44386e+05	
       929.883	     1.23935e+05	
       929.910	     1.19095e+05	
       929.939	     1.17648e+05	
       929.954	     1.17598e+05	
       929.968	     1.17612e+05	
       929.982	     1.17634e+05	
       929.996	     1.17656e+05	
       930.010	     1.17679e+05	
       930.024	     1.17701e+05	
       930.038	     1.17723e+05	
       930.052	     1.17746e+05	
       930.081	     1.17874e+05	
       930.137	     1.24361e+05	
       930.201	     1.48828e+05	
       930.247	     1.72003e+05	
       930.249	     1.73080e+05	
       930.251	     1.74161e+05	
       930.301	     2.01631e+05	
       930.326	     2.14823e+05	
       930.402	     2.56732e+05	
       930.478	     2.97217e+05	
       930.630	     3.72656e+05	
       930.633	     3.74095e+05	
       930.782	     4.41183e+05	
       930.931	     5.02583e+05	
       931.080	     5.58892e+05	
       931.229	     6.11998e+05	
       931.379	     6.66781e+05	
       931.528	     7.21426e+05	
       931.677	     7.72942e+05	
       931.788	     8.08285e+05	
       931.814	     8.16217e+05	
       931.826	     8.19814e+05	
       931.838	     8.23345e+05	
       931.888	     8.37659e+05	
       931.988	     8.64538e+05	
       932.088	     8.85967e+05	
       932.188	     9.05775e+05	
       932.389	     9.40524e+05	
       932.589	     9.69364e+05	
       932.789	     9.93158e+05	
       932.989	     1.01150e+06	
       933.189	     1.02575e+06	
       933.347	     1.03411e+06	
       933.375	     1.03531e+06	
       933.377	     1.03539e+06	
       933.389	     1.03587e+06	
       933.403	     1.03642e+06	
       933.432	     1.03737e+06	
       933.460	     1.03822e+06	
       933.542	     1.04018e+06	
       933.652	     1.04155e+06	
       933.762	     1.04145e+06	
       933.872	     1.03973e+06	
       933.982	     1.03539e+06	
       934.092	     1.02795e+06	
       934.202	     1.01815e+06	
       934.312	     1.00587e+06	
       934.413	     9.92709e+05	
       934.422	     9.91487e+05	
       934.533	     9.75081e+05	
       934.652	     9.54127e+05	
       934.771	     9.29996e+05	
       934.890	     9.03195e+05	
       935.009	     8.73322e+05	
       935.026	     8.68785e+05	
       935.128	     8.42462e+05	
       935.230	     8.17986e+05	
       935.332	     7.92171e+05	
       935.434	     7.64824e+05	
       935.537	     7.35463e+05	
       935.639	     7.04527e+05	
       935.741	     6.72857e+05	
       935.746	     6.71239e+05	
       935.843	     6.39006e+05	
       935.945	     6.02677e+05	
       936.144	     5.27065e+05	
       936.343	     4.45930e+05	
       936.484	     3.81191e+05	
       936.542	     3.52044e+05	
       936.601	     3.21218e+05	
       936.605	     3.19019e+05	
       936.717	     2.56247e+05	
       936.829	     1.91630e+05	
       936.894	     1.56615e+05	
       936.938	     1.38060e+05	
       936.941	     1.37094e+05	
       936.944	     1.36265e+05	
       936.973	     1.30496e+05	
       936.987	     1.29530e+05	
       936.994	     1.29360e+05	
       937.001	     1.29293e+05	
       937.015	     1.29296e+05	
       937.029	     1.29319e+05	
       937.043	     1.29343e+05	
       937.058	     1.29369e+05	
       937.072	     1.29393e+05	
       937.086	     1.29418e+05	
       937.101	     1.29443e+05	
       937.115	     1.29468e+05	
       937.143	     1.29538e+05	
       937.200	     1.36729e+05	
       937.314	     1.92246e+05	
       937.428	     2.59128e+05	
       937.493	     2.96791e+05	
       937.542	     3.24407e+05	
       937.593	     3.52364e+05	
       937.694	     4.03685e+05	
       937.794	     4.50677e+05	
       937.894	     4.94710e+05	
       937.950	     5.18306e+05	
       937.988	     5.33995e+05	
       937.994	     5.36490e+05	
       938.000	     5.39047e+05	
       938.050	     5.60099e+05	
       938.150	     6.00465e+05	
       938.250	     6.39578e+05	
       938.450	     7.13019e+05	
       938.650	     7.81983e+05	
       938.788	     8.26933e+05	
       938.809	     8.33684e+05	
       938.851	     8.47074e+05	
       938.914	     8.66901e+05	
       938.924	     8.70180e+05	
       939.040	     9.05614e+05	
       939.155	     9.46339e+05	
       939.271	     9.86551e+05	
       939.387	     1.02527e+06	
       939.502	     1.06292e+06	
       939.618	     1.09875e+06	
       939.733	     1.13283e+06	
       939.965	     1.19984e+06	
       940.081	     1.23129e+06	
       940.196	     1.26136e+06	
       940.312	     1.28743e+06	
       940.427	     1.31212e+06	
       940.576	     1.34278e+06	
       940.658	     1.35897e+06	
       940.740	     1.37471e+06	
       940.905	     1.40562e+06	
       941.069	     1.43477e+06	
       941.233	     1.46209e+06	
       941.397	     1.48655e+06	
       941.561	     1.50738e+06	
       941.725	     1.52674e+06	
       941.889	     1.54463e+06	
       942.054	     1.56106e+06	
       942.218	     1.57606e+06	
       942.382	     1.58872e+06	
       942.546	     1.59941e+06	
       942.701	     1.60781e+06	
       942.874	     1.61513e+06	
       943.048	     1.62020e+06	
       943.221	     1.62303e+06	
       943.394	     1.62283e+06	
       943.567	     1.61986e+06	
       943.740	     1.61396e+06	
       943.913	     1.60506e+06	
       944.086	     1.59240e+06	
       944.260	     1.57449e+06	
       944.433	     1.55284e+06	
       944.606	     1.52736e+06	
       944.779	     1.49863e+06	
       944.943	     1.47083e+06	
       944.952	     1.46922e+06	
       945.125	     1.43651e+06	
       945.308	     1.39853e+06	
       945.490	     1.35738e+06	
       945.672	     1.31250e+06	
       945.854	     1.26351e+06	
       946.036	     1.21974e+06	
       946.218	     1.17559e+06	
       946.401	     1.13033e+06	
       946.583	     1.08452e+06	
       946.736	     1.04445e+06	
       946.765	     1.03683e+06	
       946.947	     9.87387e+05	
       947.158	     9.26908e+05	
       947.264	     8.95608e+05	
       947.369	     8.62933e+05	
       947.476	     8.28975e+05	
       947.581	     7.93987e+05	
       947.687	     7.57234e+05	
       947.792	     7.18548e+05	
       947.898	     6.77582e+05	
       947.923	     6.67463e+05	
       948.003	     6.34696e+05	
       948.083	     6.00509e+05	
       948.243	     5.29402e+05	
       948.261	     5.20879e+05	
       948.403	     4.49945e+05	
       948.546	     3.69316e+05	
       948.599	     3.36977e+05	
       948.661	     2.97871e+05	
       948.688	     2.80638e+05	
       948.777	     2.23375e+05	
       948.835	     1.87503e+05	
       948.893	     1.59327e+05	
       948.922	     1.52492e+05	
       948.951	     1.51220e+05	
       948.966	     1.51242e+05	
       948.980	     1.51270e+05	
       948.994	     1.51297e+05	
       949.009	     1.51326e+05	
       949.023	     1.51354e+05	
       949.037	     1.51381e+05	
       949.052	     1.51411e+05	
       949.066	     1.51438e+05	
       949.095	     1.51501e+05	
       949.153	     1.59862e+05	
       949.230	     1.99677e+05	
       949.258	     2.17578e+05	
       949.269	     2.24750e+05	
       949.280	     2.31988e+05	
       949.330	     2.64651e+05	
       949.360	     2.84239e+05	
       949.430	     3.29616e+05	
       949.500	     3.73539e+05	
       949.640	     4.55415e+05	
       949.781	     5.28152e+05	
       949.795	     5.35085e+05	
       949.879	     5.75251e+05	
       949.921	     5.94443e+05	
       949.963	     6.13550e+05	
       950.131	     6.87704e+05	
       950.299	     7.56857e+05	
       950.467	     8.20807e+05	
       950.635	     8.81079e+05	
       950.719	     9.10286e+05	
       950.804	     9.38661e+05	
       950.888	     9.66354e+05	
       951.056	     1.02071e+06	
       951.224	     1.07363e+06	
       951.392	     1.12505e+06	
       951.728	     1.22579e+06	
       951.896	     1.27725e+06	
       952.065	     1.32833e+06	
       952.233	     1.38291e+06	
       952.401	     1.44217e+06	
       952.688	     1.53908e+06	
       952.737	     1.55553e+06	
       952.788	     1.57266e+06	
       952.888	     1.60610e+06	
       953.089	     1.67229e+06	
       953.489	     1.80818e+06	
       953.889	     1.94816e+06	
       954.290	     2.07991e+06	
       954.690	     2.20652e+06	
       955.090	     2.32484e+06	
       955.491	     2.43497e+06	
       955.768	     2.50759e+06	
       955.891	     2.53613e+06	
       956.014	     2.56352e+06	
       956.260	     2.62502e+06	
       956.506	     2.68573e+06	
       956.999	     2.80116e+06	
       957.491	     2.90843e+06	
       957.984	     3.00470e+06	
       958.476	     3.08872e+06	
       958.648	     3.11580e+06	
       958.969	     3.16255e+06	
       959.289	     3.20323e+06	
       959.429	     3.21815e+06	
       959.609	     3.23568e+06	
       959.929	     3.26236e+06	
       960.430	     3.29148e+06	
       960.680	     3.31397e+06	
       960.930	     3.33034e+06	
       961.180	     3.34046e+06	
       961.431	     3.34438e+06	
       961.681	     3.34105e+06	
       961.931	     3.33094e+06	
       962.181	     3.31473e+06	
       962.431	     3.29214e+06	
       962.682	     3.26377e+06	
       962.932	     3.22918e+06	
       963.182	     3.18919e+06	
       963.432	     3.14464e+06	
       963.634	     3.10489e+06	
       963.682	     3.09535e+06	
       963.933	     3.04420e+06	
       964.231	     2.97792e+06	
       964.529	     2.90616e+06	
       964.827	     2.83090e+06	
       965.424	     2.67924e+06	
       966.020	     2.52430e+06	
       966.617	     2.36784e+06	
       967.213	     2.20774e+06	
       967.588	     2.10499e+06	
       967.810	     2.04317e+06	
       968.032	     1.98059e+06	
       968.476	     1.85019e+06	
       968.544	     1.82991e+06	
       968.921	     1.71436e+06	
       969.109	     1.65380e+06	
       969.297	     1.59135e+06	
       969.420	     1.54917e+06	
       969.485	     1.52653e+06	
       969.673	     1.45898e+06	
       969.799	     1.41191e+06	
       969.927	     1.36346e+06	
       970.054	     1.31332e+06	
       970.180	     1.26085e+06	
       970.307	     1.20597e+06	
       970.433	     1.14885e+06	
       970.560	     1.08818e+06	
       970.686	     1.02382e+06	
       970.751	     9.88998e+05	
       970.813	     9.54944e+05	
       970.874	     9.19767e+05	
       970.997	     8.46166e+05	
       971.120	     7.66150e+05	
       971.140	     7.53228e+05	
       971.244	     6.78144e+05	
       971.348	     5.94154e+05	
       971.452	     4.98769e+05	
       971.469	     4.81923e+05	
       971.527	     4.23044e+05	
       971.556	     3.92451e+05	
       971.585	     3.61503e+05	
       971.653	     2.89748e+05	
       971.699	     2.46132e+05	
       971.701	     2.44409e+05	
       971.703	     2.42739e+05	
       971.732	     2.20944e+05	
       971.744	     2.13791e+05	
       971.753	     2.09544e+05	
       971.762	     2.06074e+05	
       971.778	     2.02473e+05	
       971.792	     2.01538e+05	
       971.806	     2.01482e+05	
       971.821	     2.01518e+05	
       971.827	     2.01533e+05	
       971.833	     2.01548e+05	
       971.836	     2.01555e+05	
       971.839	     2.01563e+05	
       971.851	     2.01592e+05	
       971.866	     2.01629e+05	
       971.880	     2.01678e+05	
       971.910	     2.04757e+05	
       971.969	     2.38541e+05	
       972.037	     3.03372e+05	
       972.087	     3.56985e+05	
       972.137	     4.10977e+05	
       972.150	     4.24756e+05	
       972.237	     5.13336e+05	
       972.324	     5.93899e+05	
       972.499	     7.31485e+05	
       972.548	     7.65550e+05	
       972.673	     8.46713e+05	
       972.798	     9.20480e+05	
       972.923	     9.88568e+05	
       973.048	     1.05112e+06	
       973.173	     1.10910e+06	
       973.298	     1.16359e+06	
       973.351	     1.18590e+06	
       973.423	     1.21517e+06	
       973.548	     1.26425e+06	
       973.746	     1.33794e+06	
       973.943	     1.40748e+06	
       974.140	     1.47260e+06	
       974.337	     1.53616e+06	
       974.731	     1.65924e+06	
       975.126	     1.77455e+06	
       975.400	     1.85171e+06	
       975.520	     1.88268e+06	
       975.640	     1.91369e+06	
       975.880	     1.97609e+06	
       976.361	     2.09806e+06	
       976.601	     2.16086e+06	
       976.841	     2.22685e+06	
       977.081	     2.29725e+06	
       977.321	     2.37181e+06	
       977.802	     2.51054e+06	
       978.042	     2.58371e+06	
       978.282	     2.65442e+06	
       978.522	     2.73019e+06	
       978.762	     2.81348e+06	
       979.003	     2.90766e+06	
       979.181	     2.98458e+06	
       979.243	     3.01318e+06	
       979.305	     3.04284e+06	
       979.429	     3.09581e+06	
       979.553	     3.15231e+06	
       979.801	     3.27753e+06	
       979.925	     3.34953e+06	
       980.049	     3.41092e+06	
       980.173	     3.46499e+06	
       980.298	     3.52122e+06	
       980.546	     3.64233e+06	
       980.794	     3.75804e+06	
       981.042	     3.86306e+06	
       981.290	     3.97389e+06	
       981.636	     4.12969e+06	
       981.787	     4.19830e+06	
       982.207	     4.38500e+06	
       982.779	     4.63768e+06	
       983.066	     4.77139e+06	
       983.351	     4.90798e+06	
       983.637	     5.05410e+06	
       983.923	     5.20631e+06	
       984.496	     5.51884e+06	
       984.660	     5.60969e+06	
       985.640	     6.10656e+06	
       986.129	     6.36301e+06	
       986.373	     6.48682e+06	
       986.618	     6.61437e+06	
       986.740	     6.67799e+06	
