# Koester WD models
# teff = 15750 K (value for the effective temperature for the model. Temperatures are given in K)
# logg = 9 log(cm/s2) (value for Log(G) for the model.)
#
#   WAVELENGTH	#           FLUX	
#   (ANGSTROM)	#  (ERG/CM2/S/A)	
##############	################	
       899.230	     4.90073e+05	
       904.235	     5.18674e+05	
       908.450	     5.43759e+05	
       909.241	     5.48569e+05	
       910.032	     5.53404e+05	
       911.193	     5.60554e+05	
       911.613	     5.63137e+05	
       911.824	     5.64419e+05	
       911.929	     5.65056e+05	
       912.034	     5.65691e+05	
       912.139	     5.74487e+05	
       912.244	     5.83378e+05	
       912.349	     5.92303e+05	
       912.454	     6.01254e+05	
       912.559	     6.10207e+05	
       912.664	     6.19114e+05	
       912.770	     6.27926e+05	
       912.875	     6.36440e+05	
       912.886	     6.37303e+05	
       913.085	     6.51105e+05	
       913.284	     6.61773e+05	
       913.339	     6.63464e+05	
       913.435	     6.66395e+05	
       913.483	     6.68572e+05	
       913.531	     6.70152e+05	
       913.625	     6.70435e+05	
       913.724	     6.69985e+05	
       913.822	     6.71987e+05	
       913.871	     6.72131e+05	
       914.018	     6.64563e+05	
       914.165	     6.55807e+05	
       914.312	     6.63913e+05	
       914.343	     6.63517e+05	
       914.459	     6.38032e+05	
       914.575	     6.15623e+05	
       914.692	     6.43546e+05	
       914.808	     6.65317e+05	
       914.924	     6.19045e+05	
       915.009	     5.70146e+05	
       915.040	     5.59590e+05	
       915.071	     5.56304e+05	
       915.133	     5.73444e+05	
       915.257	     6.56734e+05	
       915.381	     6.89234e+05	
       915.505	     6.04106e+05	
       915.609	     5.16915e+05	
       915.617	     5.12975e+05	
       915.630	     5.06076e+05	
       915.643	     5.01024e+05	
       915.677	     4.95684e+05	
       915.745	     5.20992e+05	
       915.881	     6.65292e+05	
       916.017	     7.61855e+05	
       916.153	     7.14772e+05	
       916.289	     5.53828e+05	
       916.379	     4.64173e+05	
       916.421	     4.50398e+05	
       916.425	     4.50159e+05	
       916.429	     4.50109e+05	
       916.479	     4.65527e+05	
       916.580	     5.74908e+05	
       916.680	     7.25325e+05	
       916.780	     8.43753e+05	
       916.880	     8.98323e+05	
       916.980	     8.72477e+05	
       917.080	     7.75364e+05	
       917.180	     6.26223e+05	
       917.182	     6.22852e+05	
       917.280	     4.73520e+05	
       917.378	     4.17153e+05	
       917.575	     6.32959e+05	
       917.771	     9.51698e+05	
       917.967	     1.09945e+06	
       918.163	     1.00099e+06	
       918.359	     7.00110e+05	
       918.510	     4.46386e+05	
       918.556	     4.08834e+05	
       918.602	     3.98678e+05	
       918.694	     4.47536e+05	
       918.878	     7.75907e+05	
       919.062	     1.10861e+06	
       919.201	     1.28679e+06	
       919.241	     1.32210e+06	
       919.246	     1.32594e+06	
       919.251	     1.32967e+06	
       919.301	     1.35912e+06	
       919.402	     1.38200e+06	
       919.502	     1.36273e+06	
       919.602	     1.29358e+06	
       919.702	     1.17967e+06	
       919.802	     1.02695e+06	
       919.902	     8.47727e+05	
       920.002	     6.54381e+05	
       920.102	     4.62615e+05	
       920.165	     4.02410e+05	
       920.189	     3.95084e+05	
       920.202	     3.93516e+05	
       920.215	     3.93035e+05	
       920.265	     4.02912e+05	
       920.366	     5.32783e+05	
       920.466	     7.31262e+05	
       920.566	     9.29569e+05	
       920.766	     1.29603e+06	
       920.966	     1.56743e+06	
       921.166	     1.71602e+06	
       921.367	     1.74432e+06	
       921.567	     1.65052e+06	
       921.767	     1.43378e+06	
       921.967	     1.11380e+06	
       922.167	     7.14257e+05	
       922.331	     4.16396e+05	
       922.368	     4.00248e+05	
       922.405	     3.97518e+05	
       922.479	     4.17160e+05	
       922.627	     6.88342e+05	
       922.670	     7.78216e+05	
       922.740	     9.25852e+05	
       922.775	     9.96190e+05	
       922.810	     1.06925e+06	
       922.950	     1.33267e+06	
       923.090	     1.57347e+06	
       923.230	     1.78118e+06	
       923.371	     1.95677e+06	
       923.511	     2.09114e+06	
       923.651	     2.18636e+06	
       923.791	     2.24256e+06	
       923.931	     2.26789e+06	
       924.071	     2.26116e+06	
       924.211	     2.21660e+06	
       924.352	     2.13255e+06	
       924.492	     2.00377e+06	
       924.632	     1.83493e+06	
       924.772	     1.63853e+06	
       924.912	     1.40771e+06	
       925.052	     1.15303e+06	
       925.192	     8.60196e+05	
       925.333	     5.45016e+05	
       925.434	     4.13685e+05	
       925.462	     4.10920e+05	
       925.473	     4.10754e+05	
       925.484	     4.10744e+05	
       925.534	     4.14194e+05	
       925.634	     5.44859e+05	
       925.734	     7.72672e+05	
       925.834	     9.95005e+05	
       925.934	     1.20395e+06	
       926.034	     1.39443e+06	
       926.134	     1.57735e+06	
       926.232	     1.74288e+06	
       926.234	     1.74611e+06	
       926.301	     1.85260e+06	
       926.335	     1.90697e+06	
       926.369	     1.95979e+06	
       926.505	     2.16509e+06	
       926.641	     2.34413e+06	
       926.777	     2.49799e+06	
       926.913	     2.62784e+06	
       927.049	     2.73177e+06	
       927.185	     2.81701e+06	
       927.322	     2.88459e+06	
       927.458	     2.93650e+06	
       927.594	     2.96984e+06	
       927.730	     2.98964e+06	
       927.866	     2.99414e+06	
       928.002	     2.98308e+06	
       928.006	     2.98250e+06	
       928.094	     2.96064e+06	
       928.138	     2.94536e+06	
       928.182	     2.92748e+06	
       928.359	     2.82980e+06	
       928.535	     2.68806e+06	
       928.711	     2.50988e+06	
       928.887	     2.31353e+06	
       928.985	     2.19288e+06	
       929.037	     2.12442e+06	
       929.063	     2.08891e+06	
       929.089	     2.05267e+06	
       929.125	     2.00052e+06	
       929.193	     1.89750e+06	
       929.261	     1.79023e+06	
       929.398	     1.55971e+06	
       929.493	     1.38499e+06	
       929.525	     1.32324e+06	
       929.534	     1.30556e+06	
       929.543	     1.28779e+06	
       929.593	     1.18655e+06	
       929.617	     1.13594e+06	
       929.655	     1.05306e+06	
       929.693	     9.68154e+05	
       929.769	     7.90440e+05	
       929.827	     6.49273e+05	
       929.883	     5.20483e+05	
       929.910	     4.71120e+05	
       929.939	     4.40649e+05	
       929.954	     4.35607e+05	
       929.968	     4.33958e+05	
       929.982	     4.33665e+05	
       929.996	     4.33665e+05	
       930.010	     4.33731e+05	
       930.024	     4.33813e+05	
       930.038	     4.33961e+05	
       930.052	     4.34401e+05	
       930.081	     4.41409e+05	
       930.137	     5.22067e+05	
       930.201	     6.71726e+05	
       930.247	     7.84968e+05	
       930.249	     7.89906e+05	
       930.251	     7.94845e+05	
       930.301	     9.15052e+05	
       930.326	     9.70567e+05	
       930.402	     1.14185e+06	
       930.478	     1.30178e+06	
       930.630	     1.59629e+06	
       930.633	     1.60197e+06	
       930.782	     1.86380e+06	
       930.931	     2.10792e+06	
       931.080	     2.32932e+06	
       931.229	     2.53267e+06	
       931.379	     2.74141e+06	
       931.516	     2.92552e+06	
       931.528	     2.94141e+06	
       931.677	     3.12578e+06	
       931.838	     3.30558e+06	
       931.999	     3.46342e+06	
       932.160	     3.58427e+06	
       932.321	     3.69219e+06	
       932.483	     3.78530e+06	
       932.644	     3.86746e+06	
       932.805	     3.93469e+06	
       932.966	     3.98769e+06	
       933.127	     4.03098e+06	
       933.173	     4.04160e+06	
       933.265	     4.06045e+06	
       933.288	     4.06462e+06	
       933.403	     4.08228e+06	
       933.432	     4.08564e+06	
       933.542	     4.09535e+06	
       933.652	     4.09953e+06	
       933.762	     4.09796e+06	
       933.872	     4.09026e+06	
       933.982	     4.07345e+06	
       934.092	     4.04615e+06	
       934.202	     4.01040e+06	
       934.312	     3.96548e+06	
       934.413	     3.91772e+06	
       934.422	     3.91336e+06	
       934.533	     3.85517e+06	
       934.652	     3.78147e+06	
       934.771	     3.69655e+06	
       934.890	     3.60121e+06	
       935.009	     3.49370e+06	
       935.026	     3.47740e+06	
       935.128	     3.38227e+06	
       935.230	     3.29308e+06	
       935.332	     3.19827e+06	
       935.434	     3.09784e+06	
       935.537	     2.99119e+06	
       935.639	     2.87828e+06	
       935.741	     2.75999e+06	
       935.843	     2.63333e+06	
       935.945	     2.49708e+06	
       935.950	     2.49013e+06	
       936.047	     2.35087e+06	
       936.144	     2.20374e+06	
       936.338	     1.89055e+06	
       936.464	     1.66627e+06	
       936.532	     1.53536e+06	
       936.601	     1.39551e+06	
       936.645	     1.30105e+06	
       936.714	     1.14462e+06	
       936.737	     1.09099e+06	
       936.829	     8.65481e+05	
       936.887	     7.11737e+05	
       936.944	     5.65908e+05	
       936.973	     5.06205e+05	
       937.001	     4.76024e+05	
       937.015	     4.72665e+05	
       937.029	     4.72043e+05	
       937.043	     4.72068e+05	
       937.058	     4.72150e+05	
       937.072	     4.72228e+05	
       937.086	     4.72307e+05	
       937.101	     4.72395e+05	
       937.115	     4.72527e+05	
       937.143	     4.76831e+05	
       937.150	     4.81103e+05	
       937.186	     5.36034e+05	
       937.199	     5.65345e+05	
       937.250	     6.96174e+05	
       937.314	     8.67620e+05	
       937.341	     9.37640e+05	
       937.442	     1.18201e+06	
       937.543	     1.40976e+06	
       937.645	     1.61942e+06	
       937.746	     1.81281e+06	
       937.847	     1.99136e+06	
       937.896	     2.07595e+06	
       937.948	     2.16331e+06	
       938.000	     2.24846e+06	
       938.104	     2.41536e+06	
       938.208	     2.57426e+06	
       938.312	     2.72418e+06	
       938.416	     2.86547e+06	
       938.520	     2.99962e+06	
       938.543	     3.02884e+06	
       938.624	     3.13089e+06	
       938.729	     3.25701e+06	
       938.914	     3.47281e+06	
       938.927	     3.48758e+06	
       939.099	     3.68820e+06	
       939.271	     3.90500e+06	
       939.443	     4.10782e+06	
       939.615	     4.29933e+06	
       939.788	     4.48004e+06	
       939.960	     4.66175e+06	
       940.132	     4.83287e+06	
       940.304	     4.98769e+06	
       940.476	     5.12783e+06	
       940.556	     5.19026e+06	
       940.648	     5.26003e+06	
       940.740	     5.32739e+06	
       940.925	     5.45600e+06	
       941.109	     5.57570e+06	
       941.293	     5.68663e+06	
       941.477	     5.78050e+06	
       941.661	     5.86429e+06	
       941.845	     5.94129e+06	
       942.030	     6.01141e+06	
       942.214	     6.07483e+06	
       942.398	     6.12812e+06	
       942.485	     6.15017e+06	
       942.582	     6.17254e+06	
       942.766	     6.20838e+06	
       943.048	     6.24533e+06	
       943.329	     6.25742e+06	
       943.610	     6.23911e+06	
       943.750	     6.21875e+06	
       943.891	     6.19073e+06	
       944.031	     6.15482e+06	
       944.173	     6.10594e+06	
       944.313	     6.04741e+06	
       944.454	     5.97930e+06	
       944.594	     5.90180e+06	
       944.725	     5.82121e+06	
       944.735	     5.81471e+06	
       944.870	     5.73168e+06	
       945.016	     5.63523e+06	
       945.161	     5.53005e+06	
       945.308	     5.41708e+06	
       945.454	     5.29786e+06	
       945.599	     5.17138e+06	
       945.745	     5.03635e+06	
       945.890	     4.89457e+06	
       946.181	     4.63385e+06	
       946.473	     4.36590e+06	
       946.764	     4.08963e+06	
       946.952	     3.90211e+06	
       947.055	     3.79558e+06	
       947.158	     3.68710e+06	
       947.261	     3.57507e+06	
       947.364	     3.45892e+06	
       947.468	     3.33829e+06	
       947.571	     3.21313e+06	
       947.674	     3.08093e+06	
       947.777	     2.94206e+06	
       947.880	     2.79319e+06	
       947.883	     2.78869e+06	
       947.983	     2.63407e+06	
       948.083	     2.47122e+06	
       948.183	     2.30047e+06	
       948.283	     2.12029e+06	
       948.383	     1.92793e+06	
       948.421	     1.85006e+06	
       948.483	     1.71887e+06	
       948.546	     1.57905e+06	
       948.563	     1.53955e+06	
       948.670	     1.27660e+06	
       948.777	     9.90890e+05	
       948.843	     7.95850e+05	
       948.875	     6.99460e+05	
       948.884	     6.73564e+05	
       948.893	     6.49644e+05	
       948.922	     5.78977e+05	
       948.935	     5.57127e+05	
       948.943	     5.49144e+05	
       948.951	     5.45013e+05	
       948.966	     5.43213e+05	
       948.980	     5.43185e+05	
       948.994	     5.43272e+05	
       949.009	     5.43367e+05	
       949.023	     5.43455e+05	
       949.037	     5.43543e+05	
       949.052	     5.43637e+05	
       949.066	     5.43728e+05	
       949.095	     5.45921e+05	
       949.153	     6.51566e+05	
       949.230	     8.79718e+05	
       949.258	     9.64507e+05	
       949.269	     9.96215e+05	
       949.280	     1.02783e+06	
       949.330	     1.16499e+06	
       949.360	     1.24460e+06	
       949.430	     1.42456e+06	
       949.500	     1.59479e+06	
       949.640	     1.90693e+06	
       949.781	     2.18623e+06	
       949.795	     2.21250e+06	
       949.879	     2.36873e+06	
       949.921	     2.44392e+06	
       949.963	     2.51788e+06	
       950.131	     2.80072e+06	
       950.299	     3.05885e+06	
       950.467	     3.29462e+06	
       950.635	     3.51422e+06	
       950.719	     3.61977e+06	
       950.804	     3.72276e+06	
       950.888	     3.82354e+06	
       951.056	     4.01976e+06	
       951.224	     4.21140e+06	
       951.392	     4.39895e+06	
       951.728	     4.76353e+06	
       951.896	     4.95457e+06	
       952.065	     5.14367e+06	
       952.233	     5.34222e+06	
       952.401	     5.55207e+06	
       952.688	     5.89919e+06	
       952.737	     5.95907e+06	
       952.788	     6.02146e+06	
       952.888	     6.14307e+06	
       953.089	     6.38387e+06	
       953.489	     6.88153e+06	
       953.889	     7.39468e+06	
       954.290	     7.88669e+06	
       954.490	     8.12783e+06	
       954.690	     8.36587e+06	
       954.890	     8.59446e+06	
       955.090	     8.80243e+06	
       955.290	     9.00625e+06	
       955.491	     9.20477e+06	
       955.768	     9.47203e+06	
       955.891	     9.57941e+06	
       956.014	     9.68283e+06	
       956.260	     9.91835e+06	
       956.506	     1.01447e+07	
       956.999	     1.05689e+07	
       957.491	     1.09585e+07	
       957.984	     1.13106e+07	
       958.476	     1.16256e+07	
       958.648	     1.17257e+07	
       958.969	     1.18977e+07	
       959.289	     1.20502e+07	
       959.609	     1.21820e+07	
       959.929	     1.22937e+07	
       960.069	     1.23362e+07	
       960.250	     1.23842e+07	
       960.430	     1.24245e+07	
       960.790	     1.25123e+07	
       961.150	     1.25627e+07	
       961.511	     1.25754e+07	
       961.871	     1.25472e+07	
       962.231	     1.24788e+07	
       962.592	     1.23695e+07	
       962.952	     1.22185e+07	
       963.114	     1.21370e+07	
       963.312	     1.20276e+07	
       963.393	     1.19797e+07	
       963.672	     1.17994e+07	
       963.952	     1.15972e+07	
       964.231	     1.13749e+07	
       964.510	     1.11407e+07	
       964.789	     1.08905e+07	
       965.069	     1.06260e+07	
       965.348	     1.03514e+07	
       965.906	     9.76577e+06	
       966.465	     9.16745e+06	
       967.131	     8.44385e+06	
       967.582	     7.95586e+06	
       968.032	     7.46659e+06	
       968.568	     6.86843e+06	
       968.933	     6.45293e+06	
       969.297	     6.01992e+06	
       969.396	     5.89752e+06	
       969.661	     5.55927e+06	
       969.794	     5.38368e+06	
       969.927	     5.20241e+06	
       970.059	     5.01398e+06	
       970.192	     4.81839e+06	
       970.324	     4.61462e+06	
       970.457	     4.40018e+06	
       970.570	     4.20741e+06	
       970.589	     4.17304e+06	
       970.722	     3.92771e+06	
       970.874	     3.62163e+06	
       971.026	     3.28312e+06	
       971.179	     2.90238e+06	
       971.280	     2.61809e+06	
       971.314	     2.51568e+06	
       971.331	     2.46312e+06	
       971.348	     2.40880e+06	
       971.416	     2.18318e+06	
       971.519	     1.80267e+06	
       971.552	     1.67011e+06	
       971.585	     1.53347e+06	
       971.599	     1.47404e+06	
       971.644	     1.27934e+06	
       971.651	     1.24888e+06	
       971.703	     1.02079e+06	
       971.732	     8.98555e+05	
       971.762	     7.87839e+05	
       971.778	     7.42038e+05	
       971.792	     7.15070e+05	
       971.806	     7.03377e+05	
       971.821	     7.02234e+05	
       971.827	     7.02281e+05	
       971.833	     7.02325e+05	
       971.836	     7.02350e+05	
       971.839	     7.02372e+05	
       971.851	     7.02463e+05	
       971.866	     7.02727e+05	
       971.880	     7.08872e+05	
       971.910	     7.70246e+05	
       971.969	     9.97374e+05	
       972.037	     1.29751e+06	
       972.087	     1.51520e+06	
       972.137	     1.72453e+06	
       972.150	     1.77723e+06	
       972.237	     2.10909e+06	
       972.324	     2.40634e+06	
       972.499	     2.91935e+06	
       972.548	     3.04745e+06	
       972.673	     3.34796e+06	
       972.798	     3.61927e+06	
       972.923	     3.86303e+06	
       973.048	     4.08621e+06	
       973.173	     4.29050e+06	
       973.298	     4.48070e+06	
       973.351	     4.55867e+06	
       973.423	     4.66146e+06	
       973.548	     4.83299e+06	
       973.746	     5.08929e+06	
       973.943	     5.33427e+06	
       974.140	     5.56345e+06	
       974.337	     5.78650e+06	
       974.731	     6.22139e+06	
       975.126	     6.63131e+06	
       975.400	     6.90789e+06	
       975.520	     7.01948e+06	
       975.640	     7.13123e+06	
       975.880	     7.35833e+06	
       976.361	     7.80582e+06	
       976.601	     8.03927e+06	
       976.841	     8.28689e+06	
       977.081	     8.55207e+06	
       977.321	     8.83592e+06	
       977.802	     9.37143e+06	
       978.042	     9.66153e+06	
       978.282	     9.94292e+06	
       978.522	     1.02478e+07	
       978.762	     1.05878e+07	
       979.003	     1.09737e+07	
       979.181	     1.12947e+07	
       979.243	     1.14139e+07	
       979.305	     1.15378e+07	
       979.429	     1.17563e+07	
       979.553	     1.19896e+07	
       979.677	     1.22406e+07	
       979.801	     1.25095e+07	
       979.925	     1.27998e+07	
       980.049	     1.30547e+07	
       980.173	     1.32805e+07	
       980.298	     1.35137e+07	
       980.422	     1.37546e+07	
       980.546	     1.40069e+07	
       980.794	     1.44648e+07	
       981.042	     1.48845e+07	
       981.290	     1.53224e+07	
       981.636	     1.59119e+07	
       981.787	     1.61764e+07	
       982.207	     1.69089e+07	
       982.779	     1.78785e+07	
       983.066	     1.83691e+07	
       983.351	     1.88717e+07	
       983.637	     1.94078e+07	
       983.923	     1.99714e+07	
       984.496	     2.10521e+07	
       984.660	     2.13651e+07	
       985.067	     2.20804e+07	
       985.640	     2.30996e+07	
       986.129	     2.40075e+07	
       986.373	     2.44426e+07	
       986.618	     2.48796e+07	
       986.863	     2.52529e+07	
       987.108	     2.55123e+07	
       987.353	     2.57619e+07	
       987.597	     2.59960e+07	
       987.842	     2.62129e+07	
       987.964	     2.63174e+07	
