# Koester WD models
# teff = 15000 K (value for the effective temperature for the model. Temperatures are given in K)
# logg = 9.5 log(cm/s2) (value for Log(G) for the model.)
#
#   WAVELENGTH	#           FLUX	
#   (ANGSTROM)	#  (ERG/CM2/S/A)	
##############	################	
       899.230	     3.65543e+05	
       904.235	     3.87638e+05	
       908.450	     4.07031e+05	
       909.241	     4.10751e+05	
       910.032	     4.14492e+05	
       911.193	     4.20015e+05	
       911.613	     4.22013e+05	
       911.824	     4.23006e+05	
       911.929	     4.23502e+05	
       912.034	     4.23996e+05	
       912.139	     4.28086e+05	
       912.244	     4.32189e+05	
       912.349	     4.36298e+05	
       912.454	     4.40414e+05	
       912.559	     4.44523e+05	
       912.664	     4.48616e+05	
       912.770	     4.52675e+05	
       912.875	     4.56649e+05	
       912.886	     4.57058e+05	
       913.037	     4.62499e+05	
       913.085	     4.64170e+05	
       913.284	     4.70771e+05	
       913.531	     4.77651e+05	
       913.649	     4.79793e+05	
       913.736	     4.81823e+05	
       913.779	     4.82681e+05	
       913.822	     4.83397e+05	
       913.994	     4.82960e+05	
       914.165	     4.84801e+05	
       914.336	     4.81807e+05	
       914.439	     4.78512e+05	
       914.507	     4.76746e+05	
       914.575	     4.76429e+05	
       914.712	     4.78380e+05	
       914.848	     4.72885e+05	
       914.897	     4.66605e+05	
       914.984	     4.56304e+05	
       915.071	     4.51390e+05	
       915.245	     4.70375e+05	
       915.419	     4.69018e+05	
       915.544	     4.34693e+05	
       915.594	     4.21668e+05	
       915.609	     4.18061e+05	
       915.643	     4.13481e+05	
       915.677	     4.12771e+05	
       915.745	     4.22610e+05	
       915.881	     4.73319e+05	
       916.017	     5.10710e+05	
       916.153	     4.87487e+05	
       916.289	     4.19060e+05	
       916.379	     3.84920e+05	
       916.421	     3.79643e+05	
       916.425	     3.79595e+05	
       916.429	     3.79624e+05	
       916.479	     3.86909e+05	
       916.580	     4.32849e+05	
       916.680	     5.01266e+05	
       916.780	     5.59618e+05	
       916.880	     5.87676e+05	
       916.980	     5.71550e+05	
       917.080	     5.18504e+05	
       917.180	     4.41114e+05	
       917.182	     4.39594e+05	
       917.280	     3.72156e+05	
       917.378	     3.47375e+05	
       917.575	     4.48158e+05	
       917.771	     6.22359e+05	
       917.967	     7.06459e+05	
       918.163	     6.46332e+05	
       918.359	     4.70485e+05	
       918.510	     3.48088e+05	
       918.556	     3.31184e+05	
       918.602	     3.26100e+05	
       918.694	     3.49113e+05	
       918.878	     5.17562e+05	
       919.062	     7.14294e+05	
       919.201	     8.20311e+05	
       919.241	     8.41155e+05	
       919.246	     8.43423e+05	
       919.251	     8.45626e+05	
       919.301	     8.63071e+05	
       919.402	     8.76174e+05	
       919.502	     8.64522e+05	
       919.602	     8.22513e+05	
       919.702	     7.52078e+05	
       919.802	     6.60495e+05	
       919.902	     5.52012e+05	
       920.002	     4.39433e+05	
       920.102	     3.48503e+05	
       920.165	     3.21963e+05	
       920.189	     3.17967e+05	
       920.202	     3.17015e+05	
       920.215	     3.16704e+05	
       920.265	     3.22378e+05	
       920.366	     3.79715e+05	
       920.466	     4.83598e+05	
       920.566	     6.02589e+05	
       920.666	     7.21869e+05	
       920.866	     9.20691e+05	
       921.066	     1.04962e+06	
       921.266	     1.10399e+06	
       921.467	     1.08546e+06	
       921.667	     9.87509e+05	
       921.867	     8.16406e+05	
       922.067	     5.93585e+05	
       922.130	     5.16139e+05	
       922.267	     3.64780e+05	
       922.405	     3.17879e+05	
       922.542	     3.66062e+05	
       922.548	     3.71132e+05	
       922.679	     5.20311e+05	
       922.810	     6.85709e+05	
       922.941	     8.38453e+05	
       923.072	     9.81647e+05	
       923.203	     1.10462e+06	
       923.335	     1.21549e+06	
       923.466	     1.30161e+06	
       923.597	     1.36661e+06	
       923.728	     1.41010e+06	
       923.859	     1.43439e+06	
       923.990	     1.44070e+06	
       924.121	     1.42769e+06	
       924.252	     1.39295e+06	
       924.384	     1.33572e+06	
       924.515	     1.25590e+06	
       924.646	     1.15295e+06	
       924.777	     1.03645e+06	
       924.908	     9.00333e+05	
       925.039	     7.52028e+05	
       925.170	     5.85329e+05	
       925.302	     4.15714e+05	
       925.382	     3.43828e+05	
       925.433	     3.29270e+05	
       925.484	     3.27722e+05	
       925.586	     3.44708e+05	
       925.688	     4.44312e+05	
       925.790	     5.80874e+05	
       925.892	     7.15727e+05	
       925.994	     8.40433e+05	
       926.096	     9.60891e+05	
       926.198	     1.07377e+06	
       926.232	     1.10890e+06	
       926.301	     1.17803e+06	
       926.369	     1.24776e+06	
       926.505	     1.37721e+06	
       926.641	     1.49260e+06	
       926.777	     1.59331e+06	
       926.913	     1.68076e+06	
       927.049	     1.75209e+06	
       927.185	     1.81113e+06	
       927.322	     1.85784e+06	
       927.458	     1.89369e+06	
       927.594	     1.91695e+06	
       927.730	     1.93048e+06	
       927.866	     1.93330e+06	
       928.002	     1.92501e+06	
       928.006	     1.92459e+06	
       928.094	     1.90939e+06	
       928.138	     1.89895e+06	
       928.182	     1.88682e+06	
       928.359	     1.82153e+06	
       928.535	     1.72908e+06	
       928.711	     1.61041e+06	
       928.887	     1.48022e+06	
       928.985	     1.40150e+06	
       929.037	     1.35766e+06	
       929.063	     1.33486e+06	
       929.089	     1.31134e+06	
       929.125	     1.27772e+06	
       929.193	     1.21060e+06	
       929.261	     1.14285e+06	
       929.398	     9.96450e+05	
       929.493	     8.84955e+05	
       929.525	     8.46219e+05	
       929.534	     8.35306e+05	
       929.543	     8.24194e+05	
       929.593	     7.60429e+05	
       929.617	     7.28554e+05	
       929.655	     6.77528e+05	
       929.693	     6.24853e+05	
       929.769	     5.17138e+05	
       929.827	     4.37580e+05	
       929.883	     3.76281e+05	
       929.910	     3.57711e+05	
       929.939	     3.48167e+05	
       929.954	     3.46738e+05	
       929.968	     3.46282e+05	
       929.982	     3.46197e+05	
       929.996	     3.46213e+05	
       930.010	     3.46269e+05	
       930.024	     3.46332e+05	
       930.038	     3.46439e+05	
       930.052	     3.46643e+05	
       930.081	     3.48783e+05	
       930.137	     3.77459e+05	
       930.201	     4.49838e+05	
       930.247	     5.14244e+05	
       930.249	     5.17191e+05	
       930.251	     5.20135e+05	
       930.301	     5.92963e+05	
       930.326	     6.26707e+05	
       930.402	     7.32645e+05	
       930.478	     8.33433e+05	
       930.630	     1.01992e+06	
       930.633	     1.02344e+06	
       930.782	     1.18989e+06	
       930.931	     1.34718e+06	
       931.080	     1.48948e+06	
       931.229	     1.62401e+06	
       931.379	     1.76317e+06	
       931.528	     1.89602e+06	
       931.677	     2.01838e+06	
       931.788	     2.10371e+06	
       931.814	     2.12288e+06	
       931.826	     2.13161e+06	
       931.838	     2.14025e+06	
       931.888	     2.17554e+06	
       931.988	     2.24222e+06	
       932.188	     2.35018e+06	
       932.389	     2.44275e+06	
       932.589	     2.52119e+06	
       932.789	     2.58442e+06	
       932.989	     2.63117e+06	
       933.189	     2.66708e+06	
       933.347	     2.68767e+06	
       933.375	     2.69056e+06	
       933.377	     2.69076e+06	
       933.389	     2.69192e+06	
       933.403	     2.69322e+06	
       933.432	     2.69552e+06	
       933.460	     2.69755e+06	
       933.542	     2.70203e+06	
       933.652	     2.70450e+06	
       933.762	     2.70269e+06	
       933.872	     2.69639e+06	
       933.982	     2.68400e+06	
       934.092	     2.66463e+06	
       934.202	     2.63925e+06	
       934.312	     2.60767e+06	
       934.413	     2.57459e+06	
       934.422	     2.57162e+06	
       934.533	     2.53195e+06	
       934.652	     2.48188e+06	
       934.771	     2.42400e+06	
       934.890	     2.35944e+06	
       935.009	     2.28633e+06	
       935.026	     2.27529e+06	
       935.128	     2.21007e+06	
       935.230	     2.14726e+06	
       935.332	     2.08045e+06	
       935.434	     2.01084e+06	
       935.537	     1.93835e+06	
       935.639	     1.86159e+06	
       935.741	     1.78152e+06	
       935.843	     1.69759e+06	
       935.945	     1.60743e+06	
       935.950	     1.60288e+06	
       936.047	     1.51248e+06	
       936.144	     1.41748e+06	
       936.338	     1.21431e+06	
       936.464	     1.07017e+06	
       936.532	     9.86152e+05	
       936.601	     8.97430e+05	
       936.645	     8.37410e+05	
       936.714	     7.39330e+05	
       936.737	     7.05891e+05	
       936.829	     5.67975e+05	
       936.887	     4.79055e+05	
       936.944	     4.08087e+05	
       936.973	     3.86271e+05	
       937.001	     3.78147e+05	
       937.015	     3.77525e+05	
       937.029	     3.77453e+05	
       937.043	     3.77503e+05	
       937.058	     3.77572e+05	
       937.072	     3.77635e+05	
       937.086	     3.77701e+05	
       937.101	     3.77770e+05	
       937.115	     3.77849e+05	
       937.143	     3.78804e+05	
       937.150	     3.79844e+05	
       937.186	     3.97009e+05	
       937.199	     4.08369e+05	
       937.250	     4.71343e+05	
       937.314	     5.69649e+05	
       937.341	     6.11989e+05	
       937.442	     7.62964e+05	
       937.543	     9.07006e+05	
       937.645	     1.04072e+06	
       937.746	     1.16459e+06	
       937.847	     1.28041e+06	
       937.896	     1.33477e+06	
       937.948	     1.39216e+06	
       938.000	     1.44786e+06	
       938.104	     1.55595e+06	
       938.208	     1.65979e+06	
       938.312	     1.75932e+06	
       938.416	     1.85355e+06	
       938.520	     1.94510e+06	
       938.543	     1.96503e+06	
       938.729	     2.12125e+06	
       938.914	     2.27315e+06	
       938.927	     2.28363e+06	
       939.099	     2.42441e+06	
       939.271	     2.57266e+06	
       939.443	     2.71165e+06	
       939.615	     2.84381e+06	
       939.788	     2.96907e+06	
       939.960	     3.09641e+06	
       940.132	     3.21583e+06	
       940.304	     3.32443e+06	
       940.476	     3.42339e+06	
       940.556	     3.46716e+06	
       940.648	     3.51572e+06	
       940.740	     3.56253e+06	
       940.925	     3.65019e+06	
       941.109	     3.73118e+06	
       941.293	     3.80579e+06	
       941.477	     3.86881e+06	
       941.661	     3.92485e+06	
       941.845	     3.97638e+06	
       942.030	     4.02337e+06	
       942.214	     4.06591e+06	
       942.398	     4.10195e+06	
       942.485	     4.11693e+06	
       942.582	     4.13223e+06	
       942.766	     4.15699e+06	
       943.048	     4.18353e+06	
       943.329	     4.19343e+06	
       943.610	     4.18272e+06	
       943.750	     4.16993e+06	
       943.891	     4.15202e+06	
       944.031	     4.12878e+06	
       944.173	     4.09770e+06	
       944.313	     4.06029e+06	
       944.454	     4.01662e+06	
       944.594	     3.96661e+06	
       944.725	     3.91405e+06	
       944.735	     3.90977e+06	
       944.870	     3.85477e+06	
       945.016	     3.79068e+06	
       945.161	     3.72068e+06	
       945.308	     3.64472e+06	
       945.454	     3.56477e+06	
       945.599	     3.47969e+06	
       945.745	     3.38868e+06	
       945.890	     3.29236e+06	
       946.181	     3.10646e+06	
       946.370	     2.98109e+06	
       946.473	     2.91460e+06	
       946.567	     2.85216e+06	
       946.764	     2.71685e+06	
       946.961	     2.57626e+06	
       947.158	     2.42883e+06	
       947.355	     2.27423e+06	
       947.553	     2.11093e+06	
       947.750	     1.93667e+06	
       947.811	     1.87942e+06	
       947.947	     1.74427e+06	
       948.083	     1.60079e+06	
       948.219	     1.44688e+06	
       948.355	     1.28246e+06	
       948.437	     1.17550e+06	
       948.491	     1.10085e+06	
       948.546	     1.02312e+06	
       948.654	     8.56715e+05	
       948.717	     7.55000e+05	
       948.747	     7.05636e+05	
       948.762	     6.80428e+05	
       948.777	     6.54686e+05	
       948.781	     6.47822e+05	
       948.835	     5.53973e+05	
       948.837	     5.50765e+05	
       948.893	     4.69524e+05	
       948.922	     4.43938e+05	
       948.951	     4.35726e+05	
       948.966	     4.35538e+05	
       948.980	     4.35598e+05	
       948.994	     4.35670e+05	
       949.009	     4.35745e+05	
       949.023	     4.35817e+05	
       949.037	     4.35890e+05	
       949.052	     4.35968e+05	
       949.066	     4.36040e+05	
       949.095	     4.36468e+05	
       949.153	     4.70959e+05	
       949.230	     5.89033e+05	
       949.258	     6.39308e+05	
       949.269	     6.58349e+05	
       949.280	     6.77528e+05	
       949.330	     7.61836e+05	
       949.360	     8.11656e+05	
       949.430	     9.24542e+05	
       949.500	     1.03378e+06	
       949.640	     1.23443e+06	
       949.781	     1.41546e+06	
       949.795	     1.43265e+06	
       949.879	     1.53402e+06	
       949.921	     1.58376e+06	
       949.963	     1.63242e+06	
       950.131	     1.81788e+06	
       950.299	     1.99083e+06	
       950.467	     2.15113e+06	
       950.635	     2.30443e+06	
       950.719	     2.37871e+06	
       950.804	     2.45184e+06	
       950.888	     2.52384e+06	
       951.056	     2.66512e+06	
       951.224	     2.80299e+06	
       951.392	     2.93789e+06	
       951.728	     3.20223e+06	
       952.065	     3.47903e+06	
       952.401	     3.76671e+06	
       952.738	     4.05036e+06	
       953.413	     4.62527e+06	
       953.510	     4.71173e+06	
       954.135	     5.25359e+06	
       954.449	     5.50885e+06	
       954.762	     5.75606e+06	
       955.075	     5.97490e+06	
       955.387	     6.18024e+06	
       955.701	     6.37693e+06	
       956.014	     6.55644e+06	
       956.641	     6.90280e+06	
       957.266	     7.22629e+06	
       957.893	     7.52499e+06	
       958.518	     7.78886e+06	
       959.000	     7.96626e+06	
       959.145	     8.01452e+06	
       959.289	     8.06035e+06	
       959.578	     8.13842e+06	
       959.867	     8.20659e+06	
       959.883	     8.21008e+06	
       960.157	     8.26443e+06	
       960.430	     8.30791e+06	
       960.703	     8.34577e+06	
       960.976	     8.37253e+06	
       961.249	     8.38720e+06	
       961.523	     8.38937e+06	
       961.796	     8.37860e+06	
       962.069	     8.35513e+06	
       962.342	     8.31708e+06	
       962.616	     8.26540e+06	
       962.889	     8.19937e+06	
       963.162	     8.11885e+06	
       963.186	     8.11115e+06	
       963.435	     8.02545e+06	
       963.447	     8.02096e+06	
       963.708	     7.91779e+06	
       963.970	     7.80400e+06	
       964.231	     7.67557e+06	
       964.753	     7.39757e+06	
       965.276	     7.08325e+06	
       965.798	     6.74151e+06	
       966.321	     6.37932e+06	
       966.843	     6.00830e+06	
       967.365	     5.62757e+06	
       967.744	     5.34712e+06	
       967.888	     5.23989e+06	
       968.032	     5.13119e+06	
       968.320	     4.90707e+06	
       968.496	     4.76887e+06	
       968.897	     4.44485e+06	
       969.097	     4.27621e+06	
       969.297	     4.10257e+06	
       969.468	     3.94839e+06	
       969.497	     3.92181e+06	
       969.697	     3.73400e+06	
       969.927	     3.50749e+06	
       970.042	     3.38902e+06	
       970.156	     3.26704e+06	
       970.271	     3.14064e+06	
       970.385	     3.00954e+06	
       970.500	     2.87377e+06	
       970.614	     2.73268e+06	
       970.729	     2.58208e+06	
       970.750	     2.55298e+06	
       970.812	     2.46838e+06	
       970.843	     2.42531e+06	
       970.874	     2.38136e+06	
       970.998	     2.19700e+06	
       971.122	     1.99795e+06	
       971.146	     1.95931e+06	
       971.247	     1.77766e+06	
       971.348	     1.57687e+06	
       971.449	     1.35340e+06	
       971.516	     1.19131e+06	
       971.550	     1.10341e+06	
       971.585	     1.01276e+06	
       971.605	     9.58930e+05	
       971.644	     8.53407e+05	
       971.654	     8.26223e+05	
       971.703	     7.01455e+05	
       971.732	     6.37517e+05	
       971.762	     5.88291e+05	
       971.778	     5.72920e+05	
       971.792	     5.66929e+05	
       971.806	     5.65992e+05	
       971.821	     5.66068e+05	
       971.827	     5.66106e+05	
       971.833	     5.66143e+05	
       971.836	     5.66162e+05	
       971.839	     5.66181e+05	
       971.851	     5.66260e+05	
       971.866	     5.66354e+05	
       971.880	     5.66731e+05	
       971.910	     5.82310e+05	
       971.969	     6.89426e+05	
       972.037	     8.65147e+05	
       972.087	     1.00166e+06	
       972.137	     1.13418e+06	
       972.150	     1.16754e+06	
       972.237	     1.38206e+06	
       972.324	     1.57627e+06	
       972.499	     1.91302e+06	
       972.548	     1.99823e+06	
       972.673	     2.19839e+06	
       972.798	     2.38100e+06	
       972.923	     2.54775e+06	
       973.048	     2.70255e+06	
       973.173	     2.84717e+06	
       973.298	     2.98251e+06	
       973.423	     3.11251e+06	
       973.548	     3.23707e+06	
       973.601	     3.28831e+06	
       973.673	     3.35660e+06	
       973.746	     3.42374e+06	
       973.890	     3.55437e+06	
       974.034	     3.68006e+06	
       974.178	     3.80082e+06	
       974.466	     4.03751e+06	
       974.754	     4.26418e+06	
       975.043	     4.48001e+06	
       975.331	     4.69568e+06	
       975.556	     4.84600e+06	
       975.598	     4.87418e+06	
       975.619	     4.88826e+06	
       975.640	     4.90233e+06	
       975.724	     4.95882e+06	
       975.892	     5.07251e+06	
       976.228	     5.29330e+06	
       976.565	     5.52138e+06	
       976.901	     5.76558e+06	
       977.237	     6.03729e+06	
       977.574	     6.29845e+06	
       977.910	     6.57862e+06	
       978.246	     6.85709e+06	
       978.414	     7.00515e+06	
       978.582	     7.16302e+06	
       978.750	     7.33728e+06	
       978.919	     7.52465e+06	
       979.087	     7.72929e+06	
       979.105	     7.75248e+06	
       979.205	     7.88647e+06	
       979.255	     7.95721e+06	
       979.305	     8.03026e+06	
       979.505	     8.29104e+06	
       979.705	     8.58500e+06	
       979.905	     8.91813e+06	
       980.105	     9.20832e+06	
       980.306	     9.47831e+06	
       980.506	     9.77196e+06	
       980.706	     1.00666e+07	
       980.906	     1.03103e+07	
       981.106	     1.05628e+07	
       981.506	     1.10853e+07	
       982.307	     1.21020e+07	
       982.707	     1.25979e+07	
       983.108	     1.31080e+07	
       983.508	     1.36395e+07	
       983.863	     1.41386e+07	
       983.893	     1.41817e+07	
       983.908	     1.42034e+07	
       983.923	     1.42250e+07	
       983.983	     1.43155e+07	
       984.103	     1.44887e+07	
       984.344	     1.48227e+07	
       984.824	     1.55039e+07	
       984.951	     1.56719e+07	
       985.304	     1.61396e+07	
       985.785	     1.67908e+07	
       986.202	     1.73512e+07	
       986.410	     1.76224e+07	
       986.618	     1.78942e+07	
       986.826	     1.81190e+07	
       987.035	     1.82666e+07	
       987.244	     1.84086e+07	
       987.452	     1.85474e+07	
       987.660	     1.86727e+07	
       987.868	     1.87930e+07	
       988.077	     1.89088e+07	
       988.286	     1.90941e+07	
       988.494	     1.93014e+07	
       988.702	     1.95101e+07	
       988.911	     1.96854e+07	
       988.926	     1.96954e+07	
       989.119	     1.98214e+07	
