# Koester WD models
# teff = 15500 K (value for the effective temperature for the model. Temperatures are given in K)
# logg = 9 log(cm/s2) (value for Log(G) for the model.)
#
#   WAVELENGTH	#           FLUX	
#   (ANGSTROM)	#  (ERG/CM2/S/A)	
##############	################	
       899.230	     3.93987e+05	
       904.235	     4.17508e+05	
       908.450	     4.38145e+05	
       909.241	     4.42101e+05	
       910.032	     4.46081e+05	
       911.193	     4.51968e+05	
       911.613	     4.54095e+05	
       911.824	     4.55151e+05	
       911.929	     4.55675e+05	
       912.034	     4.56197e+05	
       912.139	     4.63511e+05	
       912.244	     4.70862e+05	
       912.349	     4.78263e+05	
       912.454	     4.85731e+05	
       912.559	     4.93293e+05	
       912.664	     5.00833e+05	
       912.770	     5.08281e+05	
       912.875	     5.15495e+05	
       912.886	     5.16230e+05	
       913.085	     5.27913e+05	
       913.284	     5.36870e+05	
       913.339	     5.38221e+05	
       913.435	     5.40586e+05	
       913.483	     5.42424e+05	
       913.531	     5.43715e+05	
       913.625	     5.43706e+05	
       913.724	     5.43068e+05	
       913.822	     5.44714e+05	
       913.871	     5.44743e+05	
       914.018	     5.37655e+05	
       914.165	     5.29776e+05	
       914.312	     5.36936e+05	
       914.343	     5.36628e+05	
       914.459	     5.14150e+05	
       914.575	     4.94886e+05	
       914.692	     5.19019e+05	
       914.808	     5.38764e+05	
       914.924	     4.98530e+05	
       915.009	     4.56957e+05	
       915.040	     4.48378e+05	
       915.071	     4.45732e+05	
       915.133	     4.59731e+05	
       915.257	     5.31400e+05	
       915.381	     5.61114e+05	
       915.505	     4.87182e+05	
       915.609	     4.15202e+05	
       915.617	     4.12017e+05	
       915.630	     4.06431e+05	
       915.643	     4.02363e+05	
       915.677	     3.98037e+05	
       915.745	     4.18265e+05	
       915.881	     5.39028e+05	
       916.017	     6.24992e+05	
       916.153	     5.83513e+05	
       916.289	     4.46204e+05	
       916.379	     3.74833e+05	
       916.421	     3.64246e+05	
       916.425	     3.64073e+05	
       916.429	     3.64038e+05	
       916.479	     3.75832e+05	
       916.580	     4.63152e+05	
       916.680	     5.90940e+05	
       916.780	     6.94286e+05	
       916.880	     7.42387e+05	
       916.980	     7.20383e+05	
       917.080	     6.36348e+05	
       917.180	     5.07914e+05	
       917.182	     5.05036e+05	
       917.280	     3.83193e+05	
       917.378	     3.40885e+05	
       917.575	     5.13097e+05	
       917.771	     7.87783e+05	
       917.967	     9.15693e+05	
       918.163	     8.30662e+05	
       918.359	     5.72216e+05	
       918.510	     3.63746e+05	
       918.556	     3.36238e+05	
       918.602	     3.29289e+05	
       918.694	     3.64685e+05	
       918.878	     6.36945e+05	
       919.062	     9.23056e+05	
       919.201	     1.07593e+06	
       919.241	     1.10596e+06	
       919.246	     1.10927e+06	
       919.251	     1.11248e+06	
       919.301	     1.13756e+06	
       919.402	     1.15694e+06	
       919.502	     1.14074e+06	
       919.602	     1.08207e+06	
       919.702	     9.84943e+05	
       919.802	     8.53272e+05	
       919.902	     6.99155e+05	
       920.002	     5.34454e+05	
       920.102	     3.77296e+05	
       920.165	     3.33125e+05	
       920.189	     3.28227e+05	
       920.202	     3.27206e+05	
       920.215	     3.26936e+05	
       920.265	     3.33546e+05	
       920.366	     4.33128e+05	
       920.466	     5.99755e+05	
       920.566	     7.69762e+05	
       920.666	     9.37351e+05	
       920.766	     1.08405e+06	
       920.866	     1.21215e+06	
       920.966	     1.31313e+06	
       921.066	     1.38745e+06	
       921.166	     1.43664e+06	
       921.266	     1.46004e+06	
       921.367	     1.46041e+06	
       921.467	     1.43529e+06	
       921.567	     1.38341e+06	
       921.667	     1.30571e+06	
       921.767	     1.20078e+06	
       921.867	     1.07352e+06	
       921.967	     9.28375e+05	
       922.067	     7.61974e+05	
       922.167	     5.85910e+05	
       922.267	     4.15196e+05	
       922.331	     3.44510e+05	
       922.368	     3.33766e+05	
       922.405	     3.32239e+05	
       922.479	     3.45151e+05	
       922.627	     5.64029e+05	
       922.670	     6.40473e+05	
       922.740	     7.66721e+05	
       922.775	     8.27364e+05	
       922.810	     8.89756e+05	
       922.950	     1.11567e+06	
       923.090	     1.31908e+06	
       923.230	     1.49266e+06	
       923.371	     1.63894e+06	
       923.511	     1.75050e+06	
       923.651	     1.82987e+06	
       923.791	     1.87717e+06	
       923.931	     1.89852e+06	
       924.071	     1.89317e+06	
       924.211	     1.85592e+06	
       924.352	     1.78543e+06	
       924.492	     1.67835e+06	
       924.632	     1.53778e+06	
       924.772	     1.37397e+06	
       924.912	     1.17947e+06	
       925.052	     9.61915e+05	
       925.192	     7.10113e+05	
       925.333	     4.45113e+05	
       925.434	     3.45666e+05	
       925.462	     3.44205e+05	
       925.473	     3.44158e+05	
       925.484	     3.44177e+05	
       925.534	     3.46100e+05	
       925.634	     4.45016e+05	
       925.734	     6.35657e+05	
       925.834	     8.26097e+05	
       926.034	     1.16820e+06	
       926.100	     1.27055e+06	
       926.234	     1.46464e+06	
       926.369	     1.64252e+06	
       926.503	     1.81080e+06	
       926.637	     1.95968e+06	
       926.771	     2.08705e+06	
       926.905	     2.19551e+06	
       927.039	     2.28206e+06	
       927.173	     2.35322e+06	
       927.308	     2.41030e+06	
       927.442	     2.45476e+06	
       927.576	     2.48436e+06	
       927.710	     2.50266e+06	
       927.844	     2.50837e+06	
       927.978	     2.50162e+06	
       928.042	     2.49265e+06	
       928.112	     2.47507e+06	
       928.182	     2.45223e+06	
       928.323	     2.38968e+06	
       928.463	     2.30495e+06	
       928.603	     2.19709e+06	
       928.677	     2.13333e+06	
       928.743	     2.07113e+06	
       928.780	     2.03729e+06	
       928.883	     1.94190e+06	
       928.917	     1.90781e+06	
       928.986	     1.83624e+06	
       929.089	     1.72106e+06	
       929.261	     1.50251e+06	
       929.325	     1.41576e+06	
       929.434	     1.25249e+06	
       929.543	     1.07698e+06	
       929.652	     8.80947e+05	
       929.719	     7.51127e+05	
       929.753	     6.83444e+05	
       929.755	     6.79322e+05	
       929.761	     6.66831e+05	
       929.769	     6.50143e+05	
       929.819	     5.47492e+05	
       929.827	     5.31246e+05	
       929.883	     4.26792e+05	
       929.910	     3.88929e+05	
       929.939	     3.67789e+05	
       929.954	     3.64758e+05	
       929.968	     3.63916e+05	
       929.982	     3.63815e+05	
       929.996	     3.63856e+05	
       930.010	     3.63916e+05	
       930.024	     3.63982e+05	
       930.038	     3.64067e+05	
       930.052	     3.64293e+05	
       930.081	     3.68433e+05	
       930.137	     4.28111e+05	
       930.201	     5.49986e+05	
       930.247	     6.45428e+05	
       930.249	     6.49625e+05	
       930.251	     6.53828e+05	
       930.301	     7.56225e+05	
       930.326	     8.03940e+05	
       930.402	     9.50944e+05	
       930.478	     1.08880e+06	
       930.630	     1.33869e+06	
       930.633	     1.34341e+06	
       930.782	     1.56387e+06	
       930.931	     1.76757e+06	
       931.080	     1.95133e+06	
       931.229	     2.12151e+06	
       931.379	     2.29625e+06	
       931.516	     2.45083e+06	
       931.528	     2.46423e+06	
       931.677	     2.62016e+06	
       931.838	     2.77187e+06	
       931.999	     2.90498e+06	
       932.160	     3.00664e+06	
       932.321	     3.09673e+06	
       932.483	     3.17455e+06	
       932.644	     3.24329e+06	
       932.805	     3.29974e+06	
       932.966	     3.34460e+06	
       933.127	     3.38136e+06	
       933.173	     3.39038e+06	
       933.265	     3.40640e+06	
       933.288	     3.40998e+06	
       933.403	     3.42506e+06	
       933.432	     3.42792e+06	
       933.542	     3.43637e+06	
       933.652	     3.44014e+06	
       933.762	     3.43920e+06	
       933.872	     3.43307e+06	
       933.982	     3.41912e+06	
       934.092	     3.39606e+06	
       934.202	     3.36590e+06	
       934.312	     3.32817e+06	
       934.413	     3.28796e+06	
       934.422	     3.28428e+06	
       934.533	     3.23496e+06	
       934.652	     3.17251e+06	
       934.771	     3.10051e+06	
       934.890	     3.01943e+06	
       935.009	     2.92850e+06	
       935.026	     2.91472e+06	
       935.128	     2.83454e+06	
       935.230	     2.76002e+06	
       935.332	     2.68027e+06	
       935.434	     2.59610e+06	
       935.537	     2.50684e+06	
       935.639	     2.41209e+06	
       935.741	     2.31272e+06	
       935.746	     2.30770e+06	
       935.843	     2.20692e+06	
       935.945	     2.09238e+06	
       936.144	     1.84837e+06	
       936.343	     1.58028e+06	
       936.484	     1.36666e+06	
       936.542	     1.27022e+06	
       936.601	     1.16811e+06	
       936.605	     1.16091e+06	
       936.717	     9.46524e+05	
       936.829	     7.13085e+05	
       936.894	     5.68251e+05	
       936.938	     4.76039e+05	
       936.941	     4.70463e+05	
       936.944	     4.64975e+05	
       936.973	     4.19271e+05	
       936.987	     4.05498e+05	
       936.994	     4.01257e+05	
       937.001	     3.98608e+05	
       937.015	     3.96796e+05	
       937.029	     3.96560e+05	
       937.043	     3.96610e+05	
       937.058	     3.96683e+05	
       937.072	     3.96749e+05	
       937.086	     3.96818e+05	
       937.101	     3.96890e+05	
       937.115	     3.96975e+05	
       937.143	     3.99296e+05	
       937.150	     4.02017e+05	
       937.186	     4.41708e+05	
       937.199	     4.64576e+05	
       937.250	     5.70626e+05	
       937.314	     7.14819e+05	
       937.341	     7.75006e+05	
       937.442	     9.84409e+05	
       937.543	     1.18024e+06	
       937.645	     1.35902e+06	
       937.746	     1.52208e+06	
       937.847	     1.67212e+06	
       937.896	     1.74215e+06	
       937.948	     1.81540e+06	
       938.000	     1.88641e+06	
       938.104	     2.02527e+06	
       938.208	     2.15786e+06	
       938.312	     2.28381e+06	
       938.416	     2.40190e+06	
       938.520	     2.51488e+06	
       938.543	     2.53941e+06	
       938.624	     2.62484e+06	
       938.729	     2.73069e+06	
       938.914	     2.91184e+06	
       938.927	     2.92422e+06	
       939.099	     3.09278e+06	
       939.271	     3.27643e+06	
       939.443	     3.44887e+06	
       939.615	     3.61142e+06	
       939.788	     3.76466e+06	
       939.960	     3.91860e+06	
       940.132	     4.06321e+06	
       940.304	     4.19352e+06	
       940.476	     4.31136e+06	
       940.556	     4.36414e+06	
       940.648	     4.42305e+06	
       940.740	     4.48001e+06	
       940.925	     4.59018e+06	
       941.109	     4.69307e+06	
       941.293	     4.78882e+06	
       941.477	     4.87007e+06	
       941.661	     4.94245e+06	
       941.845	     5.00883e+06	
       942.030	     5.06927e+06	
       942.214	     5.12403e+06	
       942.398	     5.17009e+06	
       942.485	     5.18909e+06	
       942.582	     5.20835e+06	
       942.766	     5.23898e+06	
       943.048	     5.27024e+06	
       943.329	     5.27992e+06	
       943.610	     5.26383e+06	
       943.750	     5.24618e+06	
       943.891	     5.22192e+06	
       944.031	     5.19098e+06	
       944.173	     5.14882e+06	
       944.313	     5.09827e+06	
       944.454	     5.03965e+06	
       944.594	     4.97292e+06	
       944.725	     4.90381e+06	
       944.735	     4.89821e+06	
       944.870	     4.82674e+06	
       945.016	     4.74434e+06	
       945.161	     4.65458e+06	
       945.308	     4.55789e+06	
       945.454	     4.45547e+06	
       945.599	     4.34702e+06	
       945.745	     4.23129e+06	
       945.890	     4.11024e+06	
       946.181	     3.89030e+06	
       946.473	     3.66517e+06	
       946.764	     3.43228e+06	
       946.952	     3.27483e+06	
       947.055	     3.18532e+06	
       947.158	     3.09438e+06	
       947.261	     3.00032e+06	
       947.364	     2.90308e+06	
       947.468	     2.80237e+06	
       947.571	     2.69693e+06	
       947.674	     2.58629e+06	
       947.777	     2.47029e+06	
       947.880	     2.34469e+06	
       947.883	     2.34092e+06	
       947.983	     2.21250e+06	
       948.083	     2.07673e+06	
       948.183	     1.93369e+06	
       948.283	     1.78334e+06	
       948.383	     1.62063e+06	
       948.421	     1.55546e+06	
       948.483	     1.44327e+06	
       948.546	     1.32403e+06	
       948.563	     1.29015e+06	
       948.670	     1.06358e+06	
       948.777	     8.18190e+05	
       948.843	     6.53860e+05	
       948.875	     5.75021e+05	
       948.884	     5.54614e+05	
       948.893	     5.35230e+05	
       948.922	     4.81135e+05	
       948.935	     4.65716e+05	
       948.943	     4.60507e+05	
       948.951	     4.58201e+05	
       948.966	     4.57322e+05	
       948.980	     4.57362e+05	
       948.994	     4.57438e+05	
       949.009	     4.57520e+05	
       949.023	     4.57595e+05	
       949.037	     4.57670e+05	
       949.052	     4.57749e+05	
       949.066	     4.57824e+05	
       949.095	     4.58980e+05	
       949.153	     5.36845e+05	
       949.230	     7.24018e+05	
       949.258	     7.95454e+05	
       949.269	     8.22670e+05	
       949.280	     8.49920e+05	
       949.330	     9.66787e+05	
       949.360	     1.03574e+06	
       949.430	     1.19057e+06	
       949.500	     1.33747e+06	
       949.640	     1.60364e+06	
       949.781	     1.83958e+06	
       949.795	     1.86173e+06	
       949.879	     1.99154e+06	
       949.921	     2.05478e+06	
       949.963	     2.11666e+06	
       950.131	     2.35215e+06	
       950.299	     2.56926e+06	
       950.467	     2.76674e+06	
       950.635	     2.95135e+06	
       950.719	     3.03986e+06	
       950.804	     3.12616e+06	
       950.888	     3.21083e+06	
       951.056	     3.37570e+06	
       951.224	     3.53662e+06	
       951.392	     3.69420e+06	
       951.728	     4.00132e+06	
       951.896	     4.16135e+06	
       952.065	     4.32063e+06	
       952.233	     4.48808e+06	
       952.401	     4.66680e+06	
       952.688	     4.96224e+06	
       952.737	     5.01298e+06	
       952.788	     5.06550e+06	
       952.888	     5.16808e+06	
       953.089	     5.37187e+06	
       953.489	     5.79263e+06	
       953.889	     6.22538e+06	
       954.290	     6.63847e+06	
       954.690	     7.03990e+06	
       954.967	     7.29977e+06	
       955.090	     7.40747e+06	
       955.228	     7.52697e+06	
       955.491	     7.74717e+06	
       955.752	     7.95982e+06	
       956.014	     8.14869e+06	
       956.537	     8.54563e+06	
       957.061	     8.91389e+06	
       957.584	     9.25180e+06	
       957.974	     9.48098e+06	
       958.108	     9.55528e+06	
       958.302	     9.65927e+06	
       958.631	     9.82433e+06	
       958.960	     9.97358e+06	
       959.289	     1.01057e+07	
       959.463	     1.01690e+07	
       959.618	     1.02212e+07	
       959.946	     1.03184e+07	
       960.430	     1.04256e+07	
       960.671	     1.04804e+07	
       960.913	     1.05212e+07	
       961.154	     1.05472e+07	
       961.397	     1.05585e+07	
       961.638	     1.05539e+07	
       961.880	     1.05337e+07	
       962.121	     1.04984e+07	
       962.363	     1.04465e+07	
       962.605	     1.03797e+07	
       962.847	     1.02962e+07	
       963.088	     1.01965e+07	
       963.330	     1.00832e+07	
       963.571	     9.95571e+06	
       963.814	     9.81565e+06	
       963.880	     9.77541e+06	
       964.055	     9.66448e+06	
       964.231	     9.54340e+06	
       964.582	     9.29374e+06	
       964.934	     9.02259e+06	
       965.285	     8.73627e+06	
       965.348	     8.68361e+06	
       965.636	     8.43389e+06	
       965.987	     8.12529e+06	
       966.690	     7.49870e+06	
       966.767	     7.42817e+06	
       967.400	     6.85700e+06	
       968.032	     6.28334e+06	
       968.348	     5.98888e+06	
       968.665	     5.69260e+06	
       968.668	     5.68974e+06	
       968.981	     5.38701e+06	
       968.983	     5.38554e+06	
       969.297	     5.07012e+06	
       969.611	     4.73670e+06	
       969.876	     4.44001e+06	
       969.927	     4.38170e+06	
       969.977	     4.32274e+06	
       970.077	     4.20191e+06	
       970.277	     3.94961e+06	
       970.477	     3.67896e+06	
       970.480	     3.67472e+06	
       970.677	     3.38177e+06	
       970.874	     3.05280e+06	
       971.071	     2.67870e+06	
       971.190	     2.42404e+06	
       971.269	     2.23750e+06	
       971.348	     2.03271e+06	
       971.427	     1.80740e+06	
       971.467	     1.68387e+06	
       971.506	     1.55692e+06	
       971.585	     1.28012e+06	
       971.644	     1.06171e+06	
       971.703	     8.42138e+05	
       971.732	     7.41815e+05	
       971.762	     6.53932e+05	
       971.778	     6.19682e+05	
       971.792	     6.00987e+05	
       971.806	     5.94081e+05	
       971.821	     5.93673e+05	
       971.827	     5.93714e+05	
       971.833	     5.93752e+05	
       971.836	     5.93774e+05	
       971.839	     5.93792e+05	
       971.851	     5.93871e+05	
       971.866	     5.94009e+05	
       971.880	     5.97242e+05	
       971.910	     6.40973e+05	
       971.969	     8.23009e+05	
       972.037	     1.07734e+06	
       972.087	     1.26403e+06	
       972.137	     1.44502e+06	
       972.150	     1.49047e+06	
       972.237	     1.77647e+06	
       972.324	     2.03119e+06	
       972.499	     2.46407e+06	
       972.548	     2.57214e+06	
       972.673	     2.82420e+06	
       972.798	     3.05169e+06	
       972.923	     3.25705e+06	
       973.048	     3.44454e+06	
       973.173	     3.61723e+06	
       973.298	     3.77701e+06	
       973.423	     3.92910e+06	
       973.548	     4.07345e+06	
       973.601	     4.13286e+06	
       973.673	     4.21187e+06	
       973.746	     4.28925e+06	
       973.890	     4.44067e+06	
       974.034	     4.58556e+06	
       974.178	     4.72514e+06	
       974.466	     4.99890e+06	
       974.754	     5.26280e+06	
       975.043	     5.51419e+06	
       975.331	     5.76683e+06	
       975.556	     5.94314e+06	
       975.598	     5.97613e+06	
       975.619	     5.99265e+06	
       975.640	     6.00921e+06	
       975.724	     6.07568e+06	
       975.892	     6.21024e+06	
       976.228	     6.47152e+06	
       976.565	     6.74258e+06	
       976.901	     7.03469e+06	
       977.237	     7.35975e+06	
       977.574	     7.66919e+06	
       977.910	     8.00226e+06	
       978.246	     8.33166e+06	
       978.414	     8.50586e+06	
       978.582	     8.69144e+06	
       978.750	     8.89237e+06	
       978.919	     9.11216e+06	
       979.087	     9.35164e+06	
       979.105	     9.37860e+06	
       979.205	     9.53360e+06	
       979.255	     9.61488e+06	
       979.305	     9.69923e+06	
       979.505	     1.00017e+07	
       979.705	     1.03375e+07	
       979.905	     1.07170e+07	
       980.105	     1.10561e+07	
       980.306	     1.13657e+07	
       980.506	     1.16996e+07	
       980.706	     1.20371e+07	
       980.906	     1.23164e+07	
       981.106	     1.26049e+07	
       981.506	     1.31903e+07	
       982.307	     1.43621e+07	
       982.707	     1.49334e+07	
       983.108	     1.55182e+07	
       983.508	     1.61324e+07	
       983.863	     1.67177e+07	
       983.893	     1.67682e+07	
       983.908	     1.67935e+07	
       983.923	     1.68189e+07	
       983.983	     1.69210e+07	
       984.103	     1.71148e+07	
       984.344	     1.74876e+07	
       984.824	     1.82418e+07	
