# Koester WD models
# teff = 15250 K (value for the effective temperature for the model. Temperatures are given in K)
# logg = 9.5 log(cm/s2) (value for Log(G) for the model.)
#
#   WAVELENGTH	#           FLUX	
#   (ANGSTROM)	#  (ERG/CM2/S/A)	
##############	################	
       899.230	     4.11715e+05	
       903.027	     4.30125e+05	
       903.632	     4.33113e+05	
       904.235	     4.36116e+05	
       905.444	     4.42170e+05	
       906.478	     4.47407e+05	
       907.859	     4.54472e+05	
       908.450	     4.57516e+05	
       909.241	     4.61619e+05	
       910.032	     4.65744e+05	
       911.193	     4.71833e+05	
       911.613	     4.74032e+05	
       911.824	     4.75125e+05	
       911.929	     4.75669e+05	
       912.034	     4.76212e+05	
       912.139	     4.81151e+05	
       912.244	     4.86095e+05	
       912.349	     4.91103e+05	
       912.454	     4.96139e+05	
       912.559	     5.01166e+05	
       912.664	     5.06158e+05	
       912.770	     5.11084e+05	
       912.875	     5.15906e+05	
       912.886	     5.16402e+05	
       913.037	     5.22978e+05	
       913.085	     5.24982e+05	
       913.284	     5.32732e+05	
       913.531	     5.40703e+05	
       913.649	     5.43021e+05	
       913.736	     5.45352e+05	
       913.779	     5.46354e+05	
       913.822	     5.47184e+05	
       913.994	     5.46222e+05	
       914.165	     5.48145e+05	
       914.336	     5.44680e+05	
       914.439	     5.40244e+05	
       914.507	     5.37570e+05	
       914.575	     5.36917e+05	
       914.712	     5.40112e+05	
       914.848	     5.33948e+05	
       914.897	     5.25768e+05	
       914.984	     5.12431e+05	
       915.071	     5.05969e+05	
       915.245	     5.30006e+05	
       915.419	     5.29233e+05	
       915.544	     4.86787e+05	
       915.594	     4.70494e+05	
       915.609	     4.65845e+05	
       915.643	     4.60042e+05	
       915.677	     4.59072e+05	
       915.745	     4.71129e+05	
       915.881	     5.33310e+05	
       916.017	     5.77447e+05	
       916.153	     5.49798e+05	
       916.289	     4.67356e+05	
       916.379	     4.25563e+05	
       916.421	     4.19019e+05	
       916.425	     4.18950e+05	
       916.429	     4.18982e+05	
       916.479	     4.27863e+05	
       916.580	     4.83783e+05	
       916.680	     5.65832e+05	
       916.780	     6.34338e+05	
       916.880	     6.66545e+05	
       916.980	     6.47165e+05	
       917.080	     5.84352e+05	
       917.180	     4.92489e+05	
       917.182	     4.90685e+05	
       917.280	     4.09887e+05	
       917.378	     3.79608e+05	
       917.575	     5.00748e+05	
       917.771	     7.07810e+05	
       917.967	     8.08049e+05	
       918.163	     7.35076e+05	
       918.359	     5.25821e+05	
       918.510	     3.80770e+05	
       918.556	     3.60488e+05	
       918.602	     3.54155e+05	
       918.694	     3.81895e+05	
       918.878	     5.80893e+05	
       919.062	     8.16333e+05	
       919.201	     9.45623e+05	
       919.241	     9.71267e+05	
       919.246	     9.74041e+05	
       919.251	     9.76727e+05	
       919.301	     9.97999e+05	
       919.402	     1.01381e+06	
       919.502	     9.99177e+05	
       919.602	     9.47124e+05	
       919.702	     8.59951e+05	
       919.802	     7.49641e+05	
       919.902	     6.19305e+05	
       920.002	     4.87553e+05	
       920.102	     3.81081e+05	
       920.165	     3.49226e+05	
       920.189	     3.44542e+05	
       920.202	     3.43461e+05	
       920.215	     3.43103e+05	
       920.265	     3.49672e+05	
       920.366	     4.17973e+05	
       920.466	     5.39119e+05	
       920.566	     6.78999e+05	
       920.666	     8.23104e+05	
       920.766	     9.51497e+05	
       920.866	     1.06869e+06	
       920.966	     1.15995e+06	
       921.066	     1.22875e+06	
       921.166	     1.27537e+06	
       921.266	     1.29717e+06	
       921.367	     1.29712e+06	
       921.467	     1.27310e+06	
       921.567	     1.22269e+06	
       921.667	     1.15001e+06	
       921.767	     1.05455e+06	
       921.867	     9.36952e+05	
       921.967	     8.09152e+05	
       922.067	     6.65980e+05	
       922.167	     5.20813e+05	
       922.267	     4.00170e+05	
       922.331	     3.54535e+05	
       922.368	     3.45550e+05	
       922.405	     3.43737e+05	
       922.479	     3.55198e+05	
       922.627	     5.04021e+05	
       922.740	     6.70535e+05	
       922.775	     7.22236e+05	
       922.810	     7.76812e+05	
       922.880	     8.77422e+05	
       923.020	     1.07295e+06	
       923.160	     1.24703e+06	
       923.301	     1.40004e+06	
       923.441	     1.52065e+06	
       923.581	     1.61045e+06	
       923.721	     1.66923e+06	
       923.861	     1.70088e+06	
       924.001	     1.70773e+06	
       924.141	     1.68725e+06	
       924.282	     1.63679e+06	
       924.422	     1.55355e+06	
       924.562	     1.43731e+06	
       924.702	     1.29111e+06	
       924.842	     1.12677e+06	
       924.982	     9.34391e+05	
       925.122	     7.27828e+05	
       925.262	     5.12073e+05	
       925.322	     4.32208e+05	
       925.403	     3.63774e+05	
       925.484	     3.53856e+05	
       925.646	     4.33936e+05	
       925.808	     6.76495e+05	
       925.970	     9.26657e+05	
       926.132	     1.16294e+06	
       926.220	     1.28032e+06	
       926.295	     1.37482e+06	
       926.369	     1.46847e+06	
       926.517	     1.64074e+06	
       926.665	     1.78996e+06	
       926.813	     1.91886e+06	
       926.961	     2.02592e+06	
       927.109	     2.11163e+06	
       927.257	     2.18040e+06	
       927.406	     2.23250e+06	
       927.554	     2.26763e+06	
       927.702	     2.28787e+06	
       927.850	     2.29339e+06	
       927.998	     2.28356e+06	
       928.038	     2.27755e+06	
       928.110	     2.26033e+06	
       928.146	     2.24971e+06	
       928.182	     2.23774e+06	
       928.327	     2.17592e+06	
       928.471	     2.09424e+06	
       928.615	     1.98995e+06	
       928.717	     1.90264e+06	
       928.759	     1.86327e+06	
       928.903	     1.73516e+06	
       928.917	     1.72164e+06	
       929.089	     1.54319e+06	
       929.261	     1.33354e+06	
       929.325	     1.25208e+06	
       929.434	     1.09909e+06	
       929.543	     9.37677e+05	
       929.652	     7.64701e+05	
       929.719	     6.55154e+05	
       929.753	     5.99366e+05	
       929.755	     5.96017e+05	
       929.761	     5.86014e+05	
       929.769	     5.72772e+05	
       929.819	     4.93591e+05	
       929.827	     4.81785e+05	
       929.883	     4.11275e+05	
       929.910	     3.88807e+05	
       929.939	     3.76517e+05	
       929.954	     3.74500e+05	
       929.968	     3.73708e+05	
       929.982	     3.73564e+05	
       929.996	     3.73557e+05	
       930.010	     3.73604e+05	
       930.024	     3.73686e+05	
       930.038	     3.73821e+05	
       930.052	     3.74095e+05	
       930.081	     3.77176e+05	
       930.137	     4.12554e+05	
       930.201	     4.95863e+05	
       930.247	     5.69389e+05	
       930.249	     5.72719e+05	
       930.251	     5.76061e+05	
       930.301	     6.59665e+05	
       930.326	     6.99205e+05	
       930.402	     8.26286e+05	
       930.478	     9.48123e+05	
       930.630	     1.17926e+06	
       930.633	     1.18374e+06	
       930.782	     1.39045e+06	
       930.931	     1.58535e+06	
       931.080	     1.76001e+06	
       931.229	     1.92246e+06	
       931.379	     2.08938e+06	
       931.528	     2.24657e+06	
       931.677	     2.39053e+06	
       931.788	     2.49027e+06	
       931.814	     2.51285e+06	
       931.826	     2.52313e+06	
       931.838	     2.53330e+06	
       931.888	     2.57484e+06	
       931.988	     2.65313e+06	
       932.188	     2.77956e+06	
       932.389	     2.88791e+06	
       932.589	     2.98000e+06	
       932.789	     3.05392e+06	
       932.989	     3.10813e+06	
       933.189	     3.14989e+06	
       933.347	     3.17379e+06	
       933.375	     3.17712e+06	
       933.377	     3.17734e+06	
       933.389	     3.17869e+06	
       933.403	     3.18020e+06	
       933.432	     3.18284e+06	
       933.460	     3.18517e+06	
       933.542	     3.19029e+06	
       933.652	     3.19305e+06	
       933.762	     3.19079e+06	
       933.872	     3.18331e+06	
       933.982	     3.16883e+06	
       934.092	     3.14627e+06	
       934.202	     3.11681e+06	
       934.312	     3.08012e+06	
       934.413	     3.04149e+06	
       934.422	     3.03801e+06	
       934.533	     2.99160e+06	
       934.652	     2.93322e+06	
       934.771	     2.86638e+06	
       934.890	     2.79140e+06	
       935.009	     2.70665e+06	
       935.026	     2.69378e+06	
       935.128	     2.61696e+06	
       935.230	     2.54320e+06	
       935.332	     2.46474e+06	
       935.434	     2.38235e+06	
       935.537	     2.29579e+06	
       935.639	     2.20491e+06	
       935.741	     2.10943e+06	
       935.843	     2.00783e+06	
       935.945	     1.89947e+06	
       935.950	     1.89394e+06	
       936.047	     1.78373e+06	
       936.144	     1.66703e+06	
       936.338	     1.41461e+06	
       936.464	     1.23461e+06	
       936.532	     1.13037e+06	
       936.601	     1.02065e+06	
       936.645	     9.47617e+05	
       936.714	     8.28620e+05	
       936.737	     7.88709e+05	
       936.829	     6.28485e+05	
       936.887	     5.27178e+05	
       936.944	     4.45899e+05	
       936.973	     4.19525e+05	
       937.001	     4.08272e+05	
       937.015	     4.07204e+05	
       937.029	     4.07009e+05	
       937.043	     4.07056e+05	
       937.058	     4.07125e+05	
       937.072	     4.07194e+05	
       937.086	     4.07264e+05	
       937.101	     4.07342e+05	
       937.115	     4.07433e+05	
       937.143	     4.08973e+05	
       937.150	     4.10543e+05	
       937.186	     4.32673e+05	
       937.199	     4.46188e+05	
       937.250	     5.18086e+05	
       937.314	     6.30263e+05	
       937.341	     6.78612e+05	
       937.442	     8.56621e+05	
       937.543	     1.03141e+06	
       937.645	     1.19665e+06	
       937.746	     1.35123e+06	
       937.847	     1.49477e+06	
       937.896	     1.56336e+06	
       937.948	     1.63393e+06	
       938.000	     1.70238e+06	
       938.104	     1.83495e+06	
       938.208	     1.96088e+06	
       938.312	     2.08048e+06	
       938.416	     2.19414e+06	
       938.520	     2.30272e+06	
       938.624	     2.40880e+06	
       938.752	     2.53404e+06	
       938.833	     2.61287e+06	
       938.881	     2.65892e+06	
       938.914	     2.69021e+06	
       939.076	     2.84363e+06	
       939.271	     3.03962e+06	
       939.466	     3.22148e+06	
       939.661	     3.39283e+06	
       939.857	     3.55905e+06	
       940.052	     3.72194e+06	
       940.247	     3.87157e+06	
       940.442	     4.00396e+06	
       940.534	     4.06315e+06	
       940.637	     4.12680e+06	
       940.740	     4.18781e+06	
       940.947	     4.30009e+06	
       941.153	     4.40238e+06	
       941.359	     4.49509e+06	
       941.565	     4.57117e+06	
       941.771	     4.64063e+06	
       941.978	     4.70344e+06	
       942.184	     4.75980e+06	
       942.390	     4.80767e+06	
       942.596	     4.84701e+06	
       942.802	     4.87836e+06	
       942.891	     4.88932e+06	
       942.969	     4.89768e+06	
       943.009	     4.90139e+06	
       943.048	     4.90478e+06	
       943.204	     4.91496e+06	
       943.360	     4.91653e+06	
       943.516	     4.91128e+06	
       943.672	     4.89913e+06	
       943.828	     4.87968e+06	
       943.984	     4.85266e+06	
       944.141	     4.81594e+06	
       944.297	     4.76953e+06	
       944.453	     4.71415e+06	
       944.609	     4.64949e+06	
       944.765	     4.57614e+06	
       944.847	     4.53822e+06	
       945.077	     4.41975e+06	
       945.308	     4.28366e+06	
       945.538	     4.13562e+06	
       945.768	     3.97135e+06	
       945.998	     3.80001e+06	
       946.228	     3.62537e+06	
       946.459	     3.44928e+06	
       946.680	     3.27637e+06	
       946.689	     3.26908e+06	
       946.919	     3.07978e+06	
       947.039	     2.97689e+06	
       947.158	     2.87155e+06	
       947.277	     2.76223e+06	
       947.397	     2.64884e+06	
       947.517	     2.53131e+06	
       947.637	     2.40858e+06	
       947.669	     2.37458e+06	
       947.756	     2.27939e+06	
       947.772	     2.26166e+06	
       947.876	     2.14161e+06	
       947.979	     2.01376e+06	
       948.083	     1.87876e+06	
       948.187	     1.73553e+06	
       948.290	     1.58407e+06	
       948.394	     1.42221e+06	
       948.449	     1.33025e+06	
       948.497	     1.24782e+06	
       948.506	     1.23209e+06	
       948.546	     1.16202e+06	
       948.642	     9.83099e+05	
       948.661	     9.46543e+05	
       948.777	     7.23534e+05	
       948.835	     6.08954e+05	
       948.893	     5.12529e+05	
       948.922	     4.81490e+05	
       948.951	     4.69630e+05	
       948.966	     4.69200e+05	
       948.980	     4.69250e+05	
       948.994	     4.69326e+05	
       949.009	     4.69410e+05	
       949.023	     4.69486e+05	
       949.037	     4.69564e+05	
       949.052	     4.69646e+05	
       949.066	     4.69725e+05	
       949.095	     4.70425e+05	
       949.153	     5.14081e+05	
       949.230	     6.48186e+05	
       949.258	     7.05976e+05	
       949.269	     7.27546e+05	
       949.280	     7.49330e+05	
       949.330	     8.47118e+05	
       949.360	     9.05564e+05	
       949.430	     1.04188e+06	
       949.500	     1.17397e+06	
       949.640	     1.42165e+06	
       949.781	     1.64662e+06	
       949.795	     1.66780e+06	
       949.879	     1.79453e+06	
       949.921	     1.85555e+06	
       949.963	     1.91526e+06	
       950.131	     2.14196e+06	
       950.299	     2.34955e+06	
       950.467	     2.54170e+06	
       950.635	     2.72309e+06	
       950.719	     2.81109e+06	
       950.804	     2.89745e+06	
       950.888	     2.98205e+06	
       951.056	     3.14722e+06	
       951.224	     3.30832e+06	
       951.392	     3.46584e+06	
       951.728	     3.77305e+06	
       952.065	     4.09525e+06	
       952.401	     4.42751e+06	
       952.688	     4.70526e+06	
       952.737	     4.75380e+06	
       952.788	     4.80428e+06	
       952.888	     4.90290e+06	
       953.089	     5.09849e+06	
       953.489	     5.49873e+06	
       953.889	     5.90447e+06	
       954.290	     6.29016e+06	
       954.490	     6.47605e+06	
       954.690	     6.65839e+06	
       954.890	     6.83058e+06	
       955.090	     6.98508e+06	
       955.290	     7.13531e+06	
       955.491	     7.28193e+06	
       955.691	     7.42679e+06	
       955.768	     7.48117e+06	
       955.891	     7.56266e+06	
       956.014	     7.64183e+06	
       956.260	     7.79838e+06	
       956.753	     8.09827e+06	
       957.245	     8.38277e+06	
       957.738	     8.64598e+06	
       958.156	     8.85376e+06	
       958.230	     8.88923e+06	
       958.722	     9.10977e+06	
       959.289	     9.32673e+06	
       959.855	     9.50150e+06	
       960.380	     9.62270e+06	
       960.414	     9.62904e+06	
       960.422	     9.63052e+06	
       960.430	     9.63197e+06	
       960.480	     9.64236e+06	
       960.580	     9.66187e+06	
       960.780	     9.69574e+06	
       961.180	     9.74082e+06	
       961.581	     9.75505e+06	
       961.981	     9.73639e+06	
       962.381	     9.68333e+06	
       962.782	     9.59584e+06	
       963.182	     9.46923e+06	
       963.582	     9.30829e+06	
       963.735	     9.23744e+06	
       963.983	     9.11131e+06	
       964.231	     8.97387e+06	
       964.727	     8.67491e+06	
       965.224	     8.33364e+06	
       965.720	     7.95979e+06	
       966.217	     7.56122e+06	
       966.713	     7.15202e+06	
       967.209	     6.72866e+06	
       967.379	     6.58336e+06	
       967.706	     6.29924e+06	
       968.032	     6.01348e+06	
       968.072	     5.97735e+06	
       968.378	     5.69938e+06	
       968.685	     5.41601e+06	
       968.991	     5.12243e+06	
       969.297	     4.81653e+06	
       969.603	     4.49219e+06	
       969.858	     4.20584e+06	
       969.893	     4.16629e+06	
       969.910	     4.14621e+06	
       969.927	     4.12607e+06	
       969.995	     4.04480e+06	
       970.131	     3.87704e+06	
       970.267	     3.70281e+06	
       970.403	     3.52053e+06	
       970.476	     3.41865e+06	
       970.539	     3.32867e+06	
       970.675	     3.12536e+06	
       970.874	     2.79976e+06	
       971.073	     2.43331e+06	
       971.198	     2.17366e+06	
       971.273	     2.00083e+06	
       971.348	     1.81403e+06	
       971.411	     1.64576e+06	
       971.467	     1.48642e+06	
       971.498	     1.39506e+06	
       971.585	     1.12620e+06	
       971.644	     9.41265e+05	
       971.703	     7.68569e+05	
       971.732	     6.96523e+05	
       971.762	     6.38975e+05	
       971.778	     6.19396e+05	
       971.792	     6.10678e+05	
       971.806	     6.08690e+05	
       971.821	     6.08737e+05	
       971.827	     6.08778e+05	
       971.833	     6.08819e+05	
       971.836	     6.08838e+05	
       971.839	     6.08860e+05	
       971.851	     6.08938e+05	
       971.866	     6.09042e+05	
       971.880	     6.09827e+05	
       971.910	     6.31435e+05	
       971.969	     7.54692e+05	
       972.037	     9.54447e+05	
       972.087	     1.11277e+06	
       972.137	     1.27070e+06	
       972.150	     1.31155e+06	
       972.237	     1.57231e+06	
       972.324	     1.81128e+06	
       972.499	     2.22876e+06	
       972.548	     2.33295e+06	
       972.673	     2.57694e+06	
       972.798	     2.79731e+06	
       972.923	     2.99677e+06	
       973.048	     3.18111e+06	
       973.173	     3.35120e+06	
       973.298	     3.51079e+06	
       973.423	     3.66360e+06	
       973.548	     3.80874e+06	
       973.601	     3.86853e+06	
       973.673	     3.94798e+06	
       973.746	     4.02611e+06	
       973.890	     4.17879e+06	
       974.034	     4.32490e+06	
       974.178	     4.46477e+06	
       974.466	     4.73884e+06	
       974.754	     5.00236e+06	
       975.043	     5.25259e+06	
       975.331	     5.50313e+06	
       975.556	     5.67761e+06	
       975.598	     5.71025e+06	
       975.619	     5.72662e+06	
       975.640	     5.74296e+06	
       975.724	     5.80855e+06	
       975.892	     5.94135e+06	
       976.228	     6.19921e+06	
       976.565	     6.46474e+06	
       976.901	     6.75012e+06	
       977.237	     7.06902e+06	
       977.574	     7.37382e+06	
       977.910	     7.70322e+06	
       978.246	     8.02947e+06	
       978.414	     8.20380e+06	
       978.582	     8.38934e+06	
       978.750	     8.59292e+06	
       978.919	     8.81468e+06	
       979.087	     9.05508e+06	
       979.105	     9.08219e+06	
       979.205	     9.23845e+06	
       979.255	     9.32045e+06	
       979.305	     9.40643e+06	
       979.505	     9.71506e+06	
       979.705	     1.00556e+07	
       979.905	     1.04476e+07	
       980.105	     1.07893e+07	
       980.306	     1.11035e+07	
       980.506	     1.14409e+07	
       980.706	     1.17875e+07	
       980.906	     1.20731e+07	
       981.106	     1.23672e+07	
       981.506	     1.29627e+07	
       982.307	     1.41404e+07	
       983.863	     1.64717e+07	
       983.893	     1.65213e+07	
       983.908	     1.65462e+07	
       983.923	     1.65711e+07	
       983.983	     1.66742e+07	
       984.103	     1.68704e+07	
       984.344	     1.72467e+07	
       984.824	     1.80070e+07	
       984.951	     1.81971e+07	
       985.785	     1.94660e+07	
       986.202	     2.01003e+07	
       986.410	     2.04053e+07	
       986.618	     2.07112e+07	
       986.826	     2.09665e+07	
       987.035	     2.11354e+07	
       987.244	     2.12985e+07	
       987.452	     2.14581e+07	
       987.660	     2.16027e+07	
       987.868	     2.17414e+07	
       988.077	     2.18747e+07	
