# Koester WD models
# teff = 15250 K (value for the effective temperature for the model. Temperatures are given in K)
# logg = 8.75 log(cm/s2) (value for Log(G) for the model.)
#
#   WAVELENGTH	#           FLUX	
#   (ANGSTROM)	#  (ERG/CM2/S/A)	
##############	################	
       899.230	     2.84704e+05	
       904.235	     3.02219e+05	
       908.450	     3.17615e+05	
       909.241	     3.20571e+05	
       910.032	     3.23543e+05	
       911.193	     3.27957e+05	
       911.613	     3.29550e+05	
       911.824	     3.30342e+05	
       911.929	     3.30734e+05	
       912.034	     3.31127e+05	
       912.139	     3.38051e+05	
       912.244	     3.45088e+05	
       912.349	     3.52213e+05	
       912.454	     3.59448e+05	
       912.559	     3.66740e+05	
       912.664	     3.74063e+05	
       912.770	     3.81443e+05	
       912.875	     3.88593e+05	
       912.886	     3.89316e+05	
       912.980	     3.95068e+05	
       913.085	     3.99827e+05	
       913.284	     4.05024e+05	
       913.339	     4.05118e+05	
       913.435	     4.04713e+05	
       913.483	     4.05353e+05	
       913.531	     4.06161e+05	
       913.625	     4.05630e+05	
       913.724	     4.00880e+05	
       913.822	     3.98558e+05	
       913.871	     3.99799e+05	
       914.018	     3.95838e+05	
       914.165	     3.73862e+05	
       914.312	     3.98866e+05	
       914.343	     4.01618e+05	
       914.459	     3.69379e+05	
       914.575	     3.36917e+05	
       914.692	     3.75486e+05	
       914.808	     4.14276e+05	
       914.924	     3.67428e+05	
       915.009	     3.14178e+05	
       915.040	     3.02952e+05	
       915.071	     2.99597e+05	
       915.133	     3.16126e+05	
       915.257	     4.06048e+05	
       915.381	     4.47130e+05	
       915.505	     3.70058e+05	
       915.609	     2.89825e+05	
       915.617	     2.86257e+05	
       915.630	     2.80163e+05	
       915.643	     2.76084e+05	
       915.677	     2.71565e+05	
       915.745	     2.91269e+05	
       915.881	     4.18972e+05	
       916.017	     5.11071e+05	
       916.153	     4.71305e+05	
       916.289	     3.34020e+05	
       916.379	     2.63349e+05	
       916.421	     2.54131e+05	
       916.425	     2.53979e+05	
       916.429	     2.53936e+05	
       916.479	     2.63841e+05	
       916.580	     3.48805e+05	
       916.680	     4.72813e+05	
       916.780	     5.73884e+05	
       916.880	     6.19830e+05	
       916.980	     6.01508e+05	
       917.080	     5.22249e+05	
       917.180	     4.01357e+05	
       917.182	     3.98593e+05	
       917.280	     2.82021e+05	
       917.378	     2.44030e+05	
       917.575	     4.04408e+05	
       917.771	     6.58993e+05	
       917.967	     7.73865e+05	
       918.163	     7.00051e+05	
       918.359	     4.67167e+05	
       918.510	     2.70079e+05	
       918.556	     2.45503e+05	
       918.602	     2.40368e+05	
       918.694	     2.70765e+05	
       918.878	     5.24099e+05	
       919.062	     7.79241e+05	
       919.201	     9.13588e+05	
       919.241	     9.39588e+05	
       919.246	     9.42465e+05	
       919.251	     9.45261e+05	
       919.301	     9.67105e+05	
       919.402	     9.84371e+05	
       919.502	     9.70372e+05	
       919.602	     9.20421e+05	
       919.702	     8.37508e+05	
       919.802	     7.21545e+05	
       919.902	     5.85964e+05	
       920.002	     4.35689e+05	
       920.102	     2.87346e+05	
       920.165	     2.45842e+05	
       920.189	     2.42649e+05	
       920.202	     2.42057e+05	
       920.215	     2.41910e+05	
       920.265	     2.46162e+05	
       920.366	     3.39446e+05	
       920.466	     4.95599e+05	
       920.566	     6.48312e+05	
       920.666	     7.93918e+05	
       920.766	     9.21690e+05	
       920.866	     1.03088e+06	
       920.966	     1.11539e+06	
       921.066	     1.17684e+06	
       921.166	     1.21688e+06	
       921.266	     1.23563e+06	
       921.367	     1.23613e+06	
       921.467	     1.21624e+06	
       921.567	     1.17421e+06	
       921.667	     1.10959e+06	
       921.767	     1.02113e+06	
       921.867	     9.13578e+05	
       921.967	     7.87673e+05	
       922.067	     6.42453e+05	
       922.167	     4.85298e+05	
       922.267	     3.24439e+05	
       922.331	     2.57152e+05	
       922.368	     2.48334e+05	
       922.405	     2.47583e+05	
       922.479	     2.57643e+05	
       922.627	     4.64620e+05	
       922.670	     5.33521e+05	
       922.740	     6.46279e+05	
       922.775	     6.99623e+05	
       922.810	     7.53835e+05	
       922.950	     9.49006e+05	
       923.090	     1.11998e+06	
       923.230	     1.26519e+06	
       923.371	     1.38196e+06	
       923.511	     1.47094e+06	
       923.651	     1.53349e+06	
       923.791	     1.57199e+06	
       923.931	     1.58984e+06	
       924.071	     1.58612e+06	
       924.211	     1.55637e+06	
       924.352	     1.49999e+06	
       924.492	     1.41282e+06	
       924.632	     1.30010e+06	
       924.772	     1.16580e+06	
       924.912	     1.00293e+06	
       925.052	     8.16899e+05	
       925.192	     5.96350e+05	
       925.333	     3.54133e+05	
       925.434	     2.58020e+05	
       925.462	     2.57264e+05	
       925.473	     2.57267e+05	
       925.484	     2.57294e+05	
       925.534	     2.58351e+05	
       925.634	     3.53847e+05	
       925.734	     5.29233e+05	
       925.834	     6.98436e+05	
       925.934	     8.54438e+05	
       926.034	     9.93497e+05	
       926.134	     1.12300e+06	
       926.232	     1.23906e+06	
       926.234	     1.24131e+06	
       926.301	     1.31358e+06	
       926.335	     1.34961e+06	
       926.369	     1.38447e+06	
       926.505	     1.52255e+06	
       926.641	     1.64440e+06	
       926.777	     1.74851e+06	
       926.913	     1.83641e+06	
       927.049	     1.90552e+06	
       927.185	     1.96195e+06	
       927.322	     2.00707e+06	
       927.458	     2.04225e+06	
       927.594	     2.06505e+06	
       927.730	     2.07886e+06	
       927.866	     2.08200e+06	
       928.002	     2.07456e+06	
       928.006	     2.07417e+06	
       928.094	     2.05906e+06	
       928.138	     2.04850e+06	
       928.182	     2.03618e+06	
       928.359	     1.96837e+06	
       928.535	     1.86905e+06	
       928.711	     1.75067e+06	
       928.887	     1.62067e+06	
       928.985	     1.54118e+06	
       929.037	     1.49583e+06	
       929.063	     1.47235e+06	
       929.089	     1.44836e+06	
       929.125	     1.41393e+06	
       929.193	     1.34519e+06	
       929.261	     1.27223e+06	
       929.398	     1.11088e+06	
       929.493	     9.85684e+05	
       929.525	     9.40866e+05	
       929.534	     9.27832e+05	
       929.543	     9.14662e+05	
       929.593	     8.39710e+05	
       929.617	     8.01901e+05	
       929.655	     7.39946e+05	
       929.693	     6.76152e+05	
       929.769	     5.40690e+05	
       929.827	     4.32792e+05	
       929.883	     3.34774e+05	
       929.910	     2.96796e+05	
       929.939	     2.75751e+05	
       929.954	     2.72980e+05	
       929.968	     2.72460e+05	
       929.982	     2.72449e+05	
       929.996	     2.72489e+05	
       930.010	     2.72537e+05	
       930.024	     2.72586e+05	
       930.038	     2.72642e+05	
       930.052	     2.72750e+05	
       930.081	     2.76247e+05	
       930.137	     3.35833e+05	
       930.201	     4.49879e+05	
       930.247	     5.36264e+05	
       930.249	     5.40033e+05	
       930.251	     5.43803e+05	
       930.301	     6.35557e+05	
       930.326	     6.77720e+05	
       930.402	     8.06064e+05	
       930.478	     9.24781e+05	
       930.630	     1.13698e+06	
       930.633	     1.14092e+06	
       930.782	     1.32380e+06	
       930.931	     1.48713e+06	
       931.080	     1.63404e+06	
       931.229	     1.76932e+06	
       931.379	     1.90804e+06	
       931.516	     2.03435e+06	
       931.677	     2.17607e+06	
       931.838	     2.30263e+06	
       931.999	     2.41296e+06	
       932.160	     2.49541e+06	
       932.321	     2.56849e+06	
       932.483	     2.63022e+06	
       932.644	     2.68490e+06	
       932.805	     2.73049e+06	
       932.966	     2.76749e+06	
       933.127	     2.79790e+06	
       933.173	     2.80540e+06	
       933.265	     2.81881e+06	
       933.288	     2.82180e+06	
       933.403	     2.83461e+06	
       933.432	     2.83711e+06	
       933.542	     2.84462e+06	
       933.652	     2.84847e+06	
       933.762	     2.84864e+06	
       933.872	     2.84472e+06	
       933.982	     2.83400e+06	
       934.092	     2.81516e+06	
       934.202	     2.79027e+06	
       934.312	     2.75906e+06	
       934.413	     2.72540e+06	
       934.422	     2.72226e+06	
       934.533	     2.68016e+06	
       934.652	     2.62700e+06	
       934.771	     2.56625e+06	
       934.890	     2.49903e+06	
       935.009	     2.42364e+06	
       935.026	     2.41219e+06	
       935.128	     2.34656e+06	
       935.230	     2.28608e+06	
       935.332	     2.22165e+06	
       935.434	     2.15305e+06	
       935.537	     2.07984e+06	
       935.639	     2.00252e+06	
       935.741	     1.92281e+06	
       935.746	     1.91877e+06	
       935.843	     1.83733e+06	
       935.945	     1.74603e+06	
       936.144	     1.55139e+06	
       936.343	     1.33649e+06	
       936.484	     1.15947e+06	
       936.542	     1.07856e+06	
       936.601	     9.91370e+05	
       936.605	     9.85119e+05	
       936.717	     7.99887e+05	
       936.829	     5.93177e+05	
       936.894	     4.62694e+05	
       936.938	     3.76463e+05	
       936.941	     3.71308e+05	
       936.944	     3.66209e+05	
       936.973	     3.19616e+05	
       936.987	     3.05824e+05	
       936.994	     3.01725e+05	
       937.001	     2.99388e+05	
       937.015	     2.97770e+05	
       937.029	     2.97628e+05	
       937.043	     2.97673e+05	
       937.058	     2.97729e+05	
       937.072	     2.97781e+05	
       937.086	     2.97832e+05	
       937.101	     2.97888e+05	
       937.115	     2.97947e+05	
       937.143	     2.99917e+05	
       937.150	     3.02311e+05	
       937.186	     3.42553e+05	
       937.199	     3.65666e+05	
       937.250	     4.64660e+05	
       937.314	     5.94540e+05	
       937.341	     6.48396e+05	
       937.442	     8.32956e+05	
       937.543	     1.00182e+06	
       937.645	     1.15345e+06	
       937.746	     1.28987e+06	
       937.847	     1.41254e+06	
       937.896	     1.46927e+06	
       937.948	     1.52729e+06	
       938.000	     1.58342e+06	
       938.104	     1.69436e+06	
       938.208	     1.79998e+06	
       938.312	     1.90067e+06	
       938.416	     1.99598e+06	
       938.520	     2.08666e+06	
       938.543	     2.10663e+06	
       938.729	     2.26313e+06	
       938.914	     2.40995e+06	
       938.927	     2.41996e+06	
       939.099	     2.55690e+06	
       939.271	     2.70847e+06	
       939.443	     2.85273e+06	
       939.615	     2.99021e+06	
       939.788	     3.12020e+06	
       939.960	     3.24888e+06	
       940.132	     3.36996e+06	
       940.304	     3.47699e+06	
       940.476	     3.57252e+06	
       940.556	     3.61547e+06	
       940.648	     3.66347e+06	
       940.740	     3.70997e+06	
       940.925	     3.80305e+06	
       941.109	     3.89124e+06	
       941.293	     3.97399e+06	
       941.477	     4.04486e+06	
       941.661	     4.10861e+06	
       941.845	     4.16745e+06	
       942.030	     4.22095e+06	
       942.214	     4.26924e+06	
       942.398	     4.30948e+06	
       942.485	     4.32597e+06	
       942.582	     4.34262e+06	
       942.766	     4.36886e+06	
       943.048	     4.39452e+06	
       943.188	     4.40052e+06	
       943.329	     4.40074e+06	
       943.469	     4.39543e+06	
       943.610	     4.38469e+06	
       943.750	     4.36832e+06	
       943.891	     4.34636e+06	
       944.031	     4.31865e+06	
       944.173	     4.27963e+06	
       944.313	     4.23326e+06	
       944.454	     4.18020e+06	
       944.594	     4.12073e+06	
       944.725	     4.05994e+06	
       944.735	     4.05504e+06	
       944.870	     3.99218e+06	
       945.016	     3.91970e+06	
       945.161	     3.84160e+06	
       945.308	     3.75738e+06	
       945.454	     3.66790e+06	
       945.599	     3.57366e+06	
       945.745	     3.47407e+06	
       945.890	     3.37105e+06	
       946.036	     3.28406e+06	
       946.181	     3.19503e+06	
       946.473	     3.01508e+06	
       946.764	     2.82897e+06	
       946.952	     2.70315e+06	
       947.055	     2.63159e+06	
       947.158	     2.55875e+06	
       947.261	     2.48356e+06	
       947.364	     2.40553e+06	
       947.468	     2.32450e+06	
       947.571	     2.24026e+06	
       947.674	     2.15182e+06	
       947.777	     2.05854e+06	
       947.880	     1.95933e+06	
       947.883	     1.95636e+06	
       947.983	     1.85373e+06	
       948.083	     1.74565e+06	
       948.183	     1.63200e+06	
       948.283	     1.50949e+06	
       948.383	     1.37547e+06	
       948.421	     1.32013e+06	
       948.483	     1.22587e+06	
       948.546	     1.12386e+06	
       948.563	     1.09467e+06	
       948.670	     8.98643e+05	
       948.777	     6.80893e+05	
       948.843	     5.33373e+05	
       948.875	     4.60190e+05	
       948.884	     4.40897e+05	
       948.893	     4.23103e+05	
       948.922	     3.67381e+05	
       948.935	     3.52147e+05	
       948.943	     3.47228e+05	
       948.951	     3.45220e+05	
       948.966	     3.44472e+05	
       948.980	     3.44510e+05	
       948.994	     3.44567e+05	
       949.009	     3.44630e+05	
       949.023	     3.44689e+05	
       949.037	     3.44746e+05	
       949.052	     3.44809e+05	
       949.066	     3.44868e+05	
       949.095	     3.45820e+05	
       949.153	     4.24407e+05	
       949.230	     5.96824e+05	
       949.258	     6.60196e+05	
       949.269	     6.84682e+05	
       949.280	     7.09061e+05	
       949.330	     8.13918e+05	
       949.360	     8.74239e+05	
       949.430	     1.00925e+06	
       949.500	     1.13545e+06	
       949.640	     1.36132e+06	
       949.781	     1.55655e+06	
       949.795	     1.57464e+06	
       949.879	     1.68028e+06	
       949.921	     1.73057e+06	
       949.963	     1.77984e+06	
       950.131	     1.96825e+06	
       950.299	     2.14099e+06	
       950.467	     2.29981e+06	
       950.635	     2.44803e+06	
       950.719	     2.51940e+06	
       950.804	     2.58885e+06	
       950.888	     2.65666e+06	
       951.056	     2.78888e+06	
       951.224	     2.91779e+06	
       951.392	     3.04354e+06	
       951.728	     3.28874e+06	
       951.896	     3.41475e+06	
       952.065	     3.54039e+06	
       952.233	     3.67607e+06	
       952.401	     3.82545e+06	
       952.688	     4.07424e+06	
       952.737	     4.11652e+06	
       952.788	     4.16038e+06	
       952.888	     4.24599e+06	
       953.089	     4.41579e+06	
       953.489	     4.76796e+06	
       953.889	     5.13707e+06	
       954.290	     5.48921e+06	
       954.690	     5.83504e+06	
       954.967	     6.06356e+06	
       955.090	     6.16013e+06	
       955.228	     6.26716e+06	
       955.491	     6.46555e+06	
       955.752	     6.65813e+06	
       956.014	     6.82662e+06	
       956.537	     7.17527e+06	
       957.061	     7.50040e+06	
       957.584	     7.79866e+06	
       957.974	     8.00069e+06	
       958.108	     8.06654e+06	
       958.302	     8.15824e+06	
       958.631	     8.30172e+06	
       958.960	     8.42999e+06	
       959.289	     8.54202e+06	
       959.463	     8.59446e+06	
       959.618	     8.63693e+06	
       959.946	     8.71506e+06	
       960.430	     8.79655e+06	
       960.671	     8.83843e+06	
       960.913	     8.86705e+06	
       961.154	     8.88182e+06	
       961.397	     8.88298e+06	
       961.638	     8.86922e+06	
       961.880	     8.84126e+06	
       962.121	     8.79951e+06	
       962.363	     8.74274e+06	
       962.605	     8.67287e+06	
       962.847	     8.58924e+06	
       963.088	     8.49103e+06	
       963.330	     8.38174e+06	
       963.571	     8.26035e+06	
       963.880	     8.09127e+06	
       964.055	     7.98898e+06	
       964.231	     7.88006e+06	
       964.582	     7.65546e+06	
       964.934	     7.41677e+06	
       965.285	     7.16899e+06	
       965.348	     7.12400e+06	
       965.987	     6.65210e+06	
       966.690	     6.13280e+06	
       966.767	     6.07474e+06	
       967.400	     5.60762e+06	
       968.032	     5.14291e+06	
       968.348	     4.90544e+06	
       968.665	     4.66643e+06	
       968.668	     4.66413e+06	
       968.981	     4.42003e+06	
       968.983	     4.41884e+06	
       969.297	     4.16559e+06	
       969.611	     3.89953e+06	
       969.876	     3.66439e+06	
       969.927	     3.61845e+06	
       969.977	     3.57152e+06	
       970.077	     3.47545e+06	
       970.277	     3.27360e+06	
       970.477	     3.05630e+06	
       970.480	     3.05290e+06	
       970.677	     2.81761e+06	
       970.874	     2.55419e+06	
       971.071	     2.25597e+06	
       971.190	     2.05213e+06	
       971.269	     1.89927e+06	
       971.348	     1.72977e+06	
       971.427	     1.53925e+06	
       971.467	     1.43313e+06	
       971.506	     1.32392e+06	
       971.585	     1.08228e+06	
       971.644	     8.87575e+05	
       971.703	     6.88160e+05	
       971.732	     5.95024e+05	
       971.762	     5.11938e+05	
       971.778	     4.78289e+05	
       971.792	     4.58874e+05	
       971.806	     4.50847e+05	
       971.821	     4.50168e+05	
       971.827	     4.50200e+05	
       971.833	     4.50231e+05	
       971.836	     4.50247e+05	
       971.839	     4.50262e+05	
       971.851	     4.50322e+05	
       971.866	     4.50489e+05	
       971.880	     4.54513e+05	
       971.910	     4.98970e+05	
       971.969	     6.70080e+05	
       972.037	     9.01301e+05	
       972.087	     1.06814e+06	
       972.137	     1.22685e+06	
       972.150	     1.26648e+06	
       972.237	     1.51325e+06	
       972.324	     1.72871e+06	
       972.499	     2.08617e+06	
       972.548	     2.17310e+06	
       972.673	     2.37517e+06	
       972.798	     2.55685e+06	
       972.923	     2.72131e+06	
       973.048	     2.87183e+06	
       973.173	     3.01047e+06	
       973.298	     3.13960e+06	
       973.351	     3.19242e+06	
       973.423	     3.26217e+06	
       973.548	     3.37831e+06	
       973.746	     3.55148e+06	
       973.943	     3.71619e+06	
       974.140	     3.86934e+06	
       974.337	     4.01904e+06	
       974.731	     4.31174e+06	
       975.126	     4.58902e+06	
       975.400	     4.77704e+06	
       975.520	     4.85288e+06	
       975.640	     4.92932e+06	
       975.880	     5.08413e+06	
       976.361	     5.38815e+06	
       976.601	     5.54708e+06	
       976.841	     5.71559e+06	
       977.081	     5.89715e+06	
       977.321	     6.09108e+06	
       977.802	     6.45644e+06	
       978.042	     6.65355e+06	
       978.282	     6.84550e+06	
       978.522	     7.05313e+06	
       978.762	     7.28268e+06	
       979.003	     7.54155e+06	
       979.181	     7.75612e+06	
       979.243	     7.83702e+06	
       979.305	     7.92131e+06	
       979.429	     8.06877e+06	
       979.553	     8.22557e+06	
       979.677	     8.39349e+06	
       979.801	     8.57451e+06	
       979.925	     8.77029e+06	
       980.049	     8.94022e+06	
       980.173	     9.08985e+06	
       980.298	     9.24634e+06	
       980.422	     9.41165e+06	
       980.546	     9.58541e+06	
       980.794	     9.89831e+06	
       981.042	     1.01828e+07	
       981.290	     1.04822e+07	
       981.636	     1.08878e+07	
       981.787	     1.10701e+07	
       982.207	     1.15710e+07	
       982.779	     1.22460e+07	
       983.066	     1.25941e+07	
       983.351	     1.29505e+07	
       983.637	     1.33302e+07	
       983.923	     1.37260e+07	
       984.496	     1.44885e+07	
       984.660	     1.47129e+07	
       985.067	     1.52243e+07	
