# Koester WD models
# teff = 15000 K (value for the effective temperature for the model. Temperatures are given in K)
# logg = 9.25 log(cm/s2) (value for Log(G) for the model.)
#
#   WAVELENGTH	#           FLUX	
#   (ANGSTROM)	#  (ERG/CM2/S/A)	
##############	################	
       899.230	     3.08184e+05	
       902.073	     3.18828e+05	
       903.154	     3.22953e+05	
       903.554	     3.24492e+05	
       904.235	     3.27118e+05	
       906.398	     3.35576e+05	
       908.450	     3.43759e+05	
       909.241	     3.46951e+05	
       910.032	     3.50162e+05	
       911.193	     3.54909e+05	
       911.613	     3.56627e+05	
       911.824	     3.57482e+05	
       911.929	     3.57906e+05	
       912.034	     3.58330e+05	
       912.139	     3.62691e+05	
       912.244	     3.67086e+05	
       912.349	     3.71509e+05	
       912.454	     3.75958e+05	
       912.559	     3.80422e+05	
       912.664	     3.84886e+05	
       912.770	     3.89322e+05	
       912.875	     3.93657e+05	
       912.886	     3.94103e+05	
       913.085	     4.01593e+05	
       913.284	     4.08127e+05	
       913.339	     4.09519e+05	
       913.435	     4.11973e+05	
       913.483	     4.13342e+05	
       913.531	     4.14351e+05	
       913.625	     4.15344e+05	
       913.724	     4.16691e+05	
       913.822	     4.18589e+05	
       913.871	     4.18576e+05	
       914.018	     4.15532e+05	
       914.165	     4.15824e+05	
       914.312	     4.14228e+05	
       914.343	     4.13116e+05	
       914.459	     4.05064e+05	
       914.575	     4.00189e+05	
       914.692	     4.07198e+05	
       914.808	     4.10082e+05	
       914.924	     3.90528e+05	
       915.009	     3.74126e+05	
       915.040	     3.71063e+05	
       915.071	     3.70183e+05	
       915.133	     3.76099e+05	
       915.257	     4.06761e+05	
       915.381	     4.18818e+05	
       915.505	     3.77198e+05	
       915.609	     3.42239e+05	
       915.617	     3.40838e+05	
       915.630	     3.38434e+05	
       915.643	     3.36553e+05	
       915.677	     3.34966e+05	
       915.745	     3.45415e+05	
       915.881	     4.10034e+05	
       916.017	     4.61132e+05	
       916.153	     4.34404e+05	
       916.289	     3.52512e+05	
       916.379	     3.14103e+05	
       916.421	     3.08530e+05	
       916.425	     3.08451e+05	
       916.429	     3.08452e+05	
       916.479	     3.15237e+05	
       916.580	     3.64261e+05	
       916.680	     4.43583e+05	
       916.780	     5.12117e+05	
       916.880	     5.44334e+05	
       916.980	     5.28837e+05	
       917.080	     4.71952e+05	
       917.180	     3.86674e+05	
       917.182	     3.84880e+05	
       917.280	     3.11255e+05	
       917.378	     2.87798e+05	
       917.575	     3.91571e+05	
       917.771	     5.78600e+05	
       917.967	     6.68386e+05	
       918.163	     6.08706e+05	
       918.359	     4.27524e+05	
       918.510	     2.95956e+05	
       918.556	     2.80257e+05	
       918.602	     2.76291e+05	
       918.694	     2.96760e+05	
       918.878	     4.73859e+05	
       919.062	     6.75826e+05	
       919.201	     7.82778e+05	
       919.241	     8.03635e+05	
       919.246	     8.05910e+05	
       919.251	     8.08115e+05	
       919.301	     8.25344e+05	
       919.402	     8.38532e+05	
       919.502	     8.27370e+05	
       919.602	     7.86692e+05	
       919.702	     7.18457e+05	
       919.802	     6.25667e+05	
       919.902	     5.16079e+05	
       920.002	     4.00173e+05	
       920.102	     3.01479e+05	
       920.165	     2.76777e+05	
       920.189	     2.73777e+05	
       920.202	     2.73215e+05	
       920.215	     2.73045e+05	
       920.265	     2.77134e+05	
       920.366	     3.35469e+05	
       920.466	     4.45735e+05	
       920.566	     5.66181e+05	
       920.666	     6.85970e+05	
       920.866	     8.79379e+05	
       921.066	     1.00106e+06	
       921.266	     1.05283e+06	
       921.467	     1.03556e+06	
       921.667	     9.44696e+05	
       921.867	     7.82310e+05	
       922.067	     5.60498e+05	
       922.130	     4.82181e+05	
       922.267	     3.23546e+05	
       922.405	     2.76991e+05	
       922.542	     3.24693e+05	
       922.548	     3.30552e+05	
       922.679	     4.86083e+05	
       922.810	     6.52669e+05	
       922.941	     8.03120e+05	
       923.072	     9.38475e+05	
       923.203	     1.05433e+06	
       923.335	     1.15615e+06	
       923.466	     1.23661e+06	
       923.597	     1.29671e+06	
       923.728	     1.33662e+06	
       923.859	     1.35937e+06	
       923.990	     1.36556e+06	
       924.121	     1.35392e+06	
       924.252	     1.32239e+06	
       924.384	     1.26975e+06	
       924.515	     1.19410e+06	
       924.646	     1.09964e+06	
       924.777	     9.90880e+05	
       924.908	     8.62713e+05	
       925.039	     7.19893e+05	
       925.170	     5.53633e+05	
       925.302	     3.78804e+05	
       925.382	     3.01471e+05	
       925.433	     2.87811e+05	
       925.484	     2.86968e+05	
       925.586	     3.02251e+05	
       925.688	     4.08929e+05	
       925.790	     5.48748e+05	
       925.892	     6.83837e+05	
       925.994	     8.06519e+05	
       926.096	     9.19905e+05	
       926.198	     1.02592e+06	
       926.232	     1.05859e+06	
       926.301	     1.12345e+06	
       926.369	     1.18691e+06	
       926.505	     1.30858e+06	
       926.641	     1.41586e+06	
       926.777	     1.50958e+06	
       926.913	     1.58954e+06	
       927.049	     1.65404e+06	
       927.185	     1.70752e+06	
       927.322	     1.75014e+06	
       927.458	     1.78279e+06	
       927.594	     1.80382e+06	
       927.730	     1.81638e+06	
       927.866	     1.81946e+06	
       928.002	     1.81283e+06	
       928.006	     1.81247e+06	
       928.094	     1.79905e+06	
       928.138	     1.78969e+06	
       928.182	     1.77865e+06	
       928.359	     1.71827e+06	
       928.535	     1.63155e+06	
       928.711	     1.52205e+06	
       928.887	     1.40294e+06	
       928.985	     1.33069e+06	
       929.037	     1.28951e+06	
       929.063	     1.26836e+06	
       929.089	     1.24688e+06	
       929.125	     1.21615e+06	
       929.193	     1.15490e+06	
       929.261	     1.09123e+06	
       929.398	     9.54177e+05	
       929.493	     8.48909e+05	
       929.525	     8.11310e+05	
       929.534	     8.00525e+05	
       929.543	     7.89677e+05	
       929.593	     7.27329e+05	
       929.617	     6.95900e+05	
       929.655	     6.44447e+05	
       929.693	     5.92178e+05	
       929.769	     4.83394e+05	
       929.827	     4.01156e+05	
       929.883	     3.35352e+05	
       929.910	     3.14945e+05	
       929.939	     3.04993e+05	
       929.954	     3.03905e+05	
       929.968	     3.03604e+05	
       929.982	     3.03602e+05	
       929.996	     3.03644e+05	
       930.010	     3.03694e+05	
       930.024	     3.03751e+05	
       930.038	     3.03815e+05	
       930.052	     3.03924e+05	
       930.081	     3.05537e+05	
       930.137	     3.36414e+05	
       930.201	     4.13958e+05	
       930.247	     4.80177e+05	
       930.249	     4.83193e+05	
       930.251	     4.86209e+05	
       930.301	     5.59640e+05	
       930.326	     5.93830e+05	
       930.402	     6.99686e+05	
       930.478	     7.98511e+05	
       930.630	     9.76611e+05	
       930.633	     9.80007e+05	
       930.782	     1.13559e+06	
       930.931	     1.28042e+06	
       931.080	     1.41270e+06	
       931.229	     1.53552e+06	
       931.379	     1.66390e+06	
       931.528	     1.78709e+06	
       931.677	     1.90157e+06	
       931.788	     1.98031e+06	
       931.814	     1.99802e+06	
       931.826	     2.00608e+06	
       931.838	     2.01408e+06	
       931.888	     2.04661e+06	
       931.988	     2.10789e+06	
       932.188	     2.20340e+06	
       932.389	     2.28548e+06	
       932.589	     2.35525e+06	
       932.789	     2.41195e+06	
       932.989	     2.45415e+06	
       933.189	     2.48670e+06	
       933.347	     2.50552e+06	
       933.375	     2.50818e+06	
       933.377	     2.50836e+06	
       933.389	     2.50943e+06	
       933.403	     2.51063e+06	
       933.432	     2.51280e+06	
       933.460	     2.51475e+06	
       933.542	     2.51916e+06	
       933.652	     2.52197e+06	
       933.762	     2.52112e+06	
       933.872	     2.51635e+06	
       933.982	     2.50583e+06	
       934.092	     2.48863e+06	
       934.202	     2.46610e+06	
       934.312	     2.43768e+06	
       934.413	     2.40745e+06	
       934.422	     2.40469e+06	
       934.533	     2.36779e+06	
       934.652	     2.32121e+06	
       934.771	     2.26754e+06	
       934.890	     2.20721e+06	
       935.009	     2.13909e+06	
       935.026	     2.12873e+06	
       935.128	     2.06847e+06	
       935.230	     2.01223e+06	
       935.332	     1.95255e+06	
       935.434	     1.88953e+06	
       935.537	     1.82310e+06	
       935.639	     1.75334e+06	
       935.741	     1.68027e+06	
       935.746	     1.67655e+06	
       935.843	     1.60258e+06	
       935.945	     1.52007e+06	
       936.144	     1.34415e+06	
       936.343	     1.15236e+06	
       936.484	     1.00048e+06	
       936.542	     9.32054e+05	
       936.601	     8.58845e+05	
       936.605	     8.53656e+05	
       936.717	     6.98945e+05	
       936.829	     5.31513e+05	
       936.894	     4.30678e+05	
       936.938	     3.71676e+05	
       936.941	     3.68468e+05	
       936.944	     3.65298e+05	
       936.973	     3.40960e+05	
       936.987	     3.34768e+05	
       936.994	     3.32937e+05	
       937.001	     3.31922e+05	
       937.015	     3.31407e+05	
       937.029	     3.31378e+05	
       937.043	     3.31432e+05	
       937.058	     3.31491e+05	
       937.072	     3.31548e+05	
       937.086	     3.31608e+05	
       937.101	     3.31667e+05	
       937.115	     3.31730e+05	
       937.143	     3.32503e+05	
       937.200	     3.66442e+05	
       937.314	     5.32971e+05	
       937.428	     7.06120e+05	
       937.493	     7.99963e+05	
       937.542	     8.66703e+05	
       937.593	     9.33106e+05	
       937.694	     1.05354e+06	
       937.794	     1.16396e+06	
       937.894	     1.26762e+06	
       937.950	     1.32385e+06	
       937.988	     1.36106e+06	
       937.994	     1.36689e+06	
       938.000	     1.37283e+06	
       938.050	     1.42146e+06	
       938.150	     1.51592e+06	
       938.350	     1.69259e+06	
       938.550	     1.85438e+06	
       938.587	     1.88357e+06	
       938.751	     2.00816e+06	
       938.883	     2.10558e+06	
       938.914	     2.12806e+06	
       939.077	     2.24706e+06	
       939.271	     2.40378e+06	
       939.465	     2.54963e+06	
       939.659	     2.68592e+06	
       939.854	     2.81596e+06	
       940.048	     2.94411e+06	
       940.132	     2.99696e+06	
       940.242	     3.06262e+06	
       940.284	     3.08552e+06	
       940.436	     3.16585e+06	
       940.588	     3.24187e+06	
       940.740	     3.31413e+06	
       941.045	     3.44897e+06	
       941.197	     3.51023e+06	
       941.349	     3.56722e+06	
       941.501	     3.61456e+06	
       941.653	     3.65873e+06	
       941.958	     3.73780e+06	
       942.262	     3.80494e+06	
       942.566	     3.85530e+06	
       942.693	     3.87198e+06	
       942.870	     3.89064e+06	
       943.048	     3.90384e+06	
       943.225	     3.91122e+06	
       943.402	     3.91037e+06	
       943.579	     3.90249e+06	
       943.756	     3.88706e+06	
       943.933	     3.86400e+06	
       944.111	     3.83152e+06	
       944.288	     3.78788e+06	
       944.465	     3.73457e+06	
       944.642	     3.67161e+06	
       944.819	     3.60234e+06	
       944.996	     3.52977e+06	
       945.039	     3.51089e+06	
       945.173	     3.44887e+06	
       945.308	     3.38211e+06	
       945.442	     3.31221e+06	
       945.576	     3.23832e+06	
       945.710	     3.15988e+06	
       945.844	     3.07702e+06	
       946.112	     2.92154e+06	
       946.381	     2.76132e+06	
       946.649	     2.60130e+06	
       946.676	     2.58447e+06	
       946.917	     2.43134e+06	
       947.158	     2.27065e+06	
       947.279	     2.18687e+06	
       947.399	     2.09976e+06	
       947.521	     2.00976e+06	
       947.641	     1.91542e+06	
       947.681	     1.88281e+06	
       947.762	     1.81599e+06	
       947.782	     1.79897e+06	
       947.882	     1.71007e+06	
       947.983	     1.61601e+06	
       948.033	     1.56689e+06	
       948.083	     1.51738e+06	
       948.133	     1.46668e+06	
       948.233	     1.36082e+06	
       948.333	     1.25004e+06	
       948.433	     1.12871e+06	
       948.495	     1.04771e+06	
       948.521	     1.01189e+06	
       948.534	     9.95021e+05	
       948.546	     9.77943e+05	
       948.596	     9.04656e+05	
       948.615	     8.75763e+05	
       948.661	     8.03547e+05	
       948.696	     7.47822e+05	
       948.777	     6.12589e+05	
       948.835	     5.10594e+05	
       948.893	     4.21495e+05	
       948.922	     3.92894e+05	
       948.951	     3.83183e+05	
       948.966	     3.83007e+05	
       948.980	     3.83061e+05	
       948.994	     3.83127e+05	
       949.009	     3.83196e+05	
       949.023	     3.83259e+05	
       949.037	     3.83321e+05	
       949.052	     3.83391e+05	
       949.066	     3.83457e+05	
       949.095	     3.83843e+05	
       949.153	     4.22796e+05	
       949.230	     5.45660e+05	
       949.258	     5.96529e+05	
       949.269	     6.16038e+05	
       949.280	     6.35434e+05	
       949.330	     7.20282e+05	
       949.360	     7.69700e+05	
       949.430	     8.82109e+05	
       949.500	     9.88166e+05	
       949.640	     1.17914e+06	
       949.781	     1.34766e+06	
       949.795	     1.36348e+06	
       949.879	     1.45755e+06	
       949.921	     1.50292e+06	
       949.963	     1.54752e+06	
       950.131	     1.71874e+06	
       950.299	     1.87688e+06	
       950.467	     2.02396e+06	
       950.635	     2.16192e+06	
       950.719	     2.22905e+06	
       950.804	     2.29488e+06	
       950.888	     2.35919e+06	
       951.056	     2.48531e+06	
       951.392	     2.73077e+06	
       951.728	     2.96750e+06	
       951.896	     3.09168e+06	
       952.065	     3.21463e+06	
       952.233	     3.34287e+06	
       952.401	     3.47840e+06	
       952.688	     3.70262e+06	
       952.737	     3.74132e+06	
       952.788	     3.78154e+06	
       952.888	     3.86001e+06	
       953.089	     4.01524e+06	
       953.489	     4.33499e+06	
       953.889	     4.66291e+06	
       954.290	     4.97663e+06	
       954.490	     5.12962e+06	
       954.690	     5.28133e+06	
       954.890	     5.42660e+06	
       955.090	     5.55855e+06	
       955.290	     5.68751e+06	
       955.491	     5.81320e+06	
       955.768	     5.98137e+06	
       955.891	     6.04926e+06	
       956.014	     6.11508e+06	
       956.260	     6.24630e+06	
       956.753	     6.49823e+06	
       957.245	     6.73529e+06	
       957.738	     6.95555e+06	
       958.156	     7.12727e+06	
       958.230	     7.15614e+06	
       958.722	     7.33725e+06	
       959.006	     7.43078e+06	
       959.289	     7.51526e+06	
       959.572	     7.58591e+06	
       959.847	     7.64538e+06	
       959.855	     7.64698e+06	
       960.139	     7.69835e+06	
       960.430	     7.73944e+06	
       960.721	     7.77510e+06	
       961.012	     7.79753e+06	
       961.304	     7.80642e+06	
       961.595	     7.80108e+06	
       961.886	     7.78088e+06	
       962.177	     7.74604e+06	
       962.468	     7.69568e+06	
       962.760	     7.63121e+06	
       963.051	     7.54868e+06	
       963.342	     7.45321e+06	
       963.618	     7.34982e+06	
       963.633	     7.34388e+06	
       963.925	     7.22218e+06	
       964.231	     7.07920e+06	
       964.537	     6.92611e+06	
       964.843	     6.76253e+06	
       965.150	     6.58852e+06	
       965.456	     6.40539e+06	
       965.762	     6.21470e+06	
       966.375	     5.82200e+06	
       966.987	     5.42044e+06	
       967.167	     5.30090e+06	
       967.600	     5.01216e+06	
       968.032	     4.71914e+06	
       968.464	     4.41397e+06	
       968.496	     4.39107e+06	
       968.897	     4.09909e+06	
       969.097	     3.94795e+06	
       969.297	     3.79288e+06	
       969.468	     3.65455e+06	
       969.497	     3.63071e+06	
       969.697	     3.46200e+06	
       969.927	     3.25972e+06	
       970.156	     3.04415e+06	
       970.270	     2.93130e+06	
       970.385	     2.81478e+06	
       970.499	     2.69281e+06	
       970.614	     2.56565e+06	
       970.728	     2.43012e+06	
       970.750	     2.40356e+06	
       970.812	     2.32583e+06	
       970.843	     2.28640e+06	
       970.874	     2.24649e+06	
       970.998	     2.07821e+06	
       971.122	     1.89501e+06	
       971.146	     1.85887e+06	
       971.247	     1.69112e+06	
       971.348	     1.50564e+06	
       971.449	     1.29451e+06	
       971.515	     1.13900e+06	
       971.550	     1.05020e+06	
       971.585	     9.59282e+05	
       971.607	     9.00424e+05	
       971.644	     8.00242e+05	
       971.655	     7.70406e+05	
       971.703	     6.45352e+05	
       971.732	     5.79175e+05	
       971.762	     5.25915e+05	
       971.778	     5.08272e+05	
       971.792	     5.00855e+05	
       971.806	     4.99249e+05	
       971.821	     4.99300e+05	
       971.827	     4.99334e+05	
       971.833	     4.99369e+05	
       971.836	     4.99384e+05	
       971.839	     4.99403e+05	
       971.851	     4.99469e+05	
       971.866	     4.99554e+05	
       971.880	     5.00116e+05	
       971.910	     5.19192e+05	
       971.969	     6.32883e+05	
       972.037	     8.11715e+05	
       972.087	     9.48123e+05	
       972.137	     1.07957e+06	
       972.150	     1.11315e+06	
       972.237	     1.32166e+06	
       972.324	     1.50514e+06	
       972.499	     1.81833e+06	
       972.548	     1.89634e+06	
       972.673	     2.08041e+06	
       972.798	     2.24804e+06	
       972.923	     2.40010e+06	
       973.048	     2.54161e+06	
       973.173	     2.67155e+06	
       973.298	     2.79378e+06	
       973.423	     2.91071e+06	
       973.548	     3.02169e+06	
       973.601	     3.06756e+06	
       973.673	     3.12876e+06	
       973.746	     3.18881e+06	
       973.890	     3.30649e+06	
       974.034	     3.41918e+06	
       974.178	     3.52747e+06	
       974.466	     3.73997e+06	
       974.754	     3.94421e+06	
       975.043	     4.13748e+06	
       975.331	     4.33122e+06	
       975.556	     4.46637e+06	
       975.598	     4.49166e+06	
       975.619	     4.50432e+06	
       975.640	     4.51698e+06	
       975.724	     4.56784e+06	
       975.892	     4.67105e+06	
       976.228	     4.87110e+06	
       976.565	     5.07697e+06	
       976.901	     5.29779e+06	
       977.237	     5.54259e+06	
       977.574	     5.77626e+06	
       977.910	     6.02705e+06	
       978.246	     6.27561e+06	
       978.414	     6.40715e+06	
       978.582	     6.54742e+06	
       978.750	     6.70086e+06	
       978.919	     6.86777e+06	
       979.087	     7.04951e+06	
       979.105	     7.07015e+06	
       979.205	     7.18988e+06	
       979.255	     7.25243e+06	
       979.305	     7.31680e+06	
       979.505	     7.54739e+06	
       979.705	     7.80447e+06	
       979.905	     8.10003e+06	
       980.105	     8.35818e+06	
       980.306	     8.59986e+06	
       980.506	     8.86127e+06	
       980.706	     9.12259e+06	
       980.906	     9.33892e+06	
       981.106	     9.56332e+06	
       981.506	     1.00246e+07	
       982.307	     1.09374e+07	
       982.707	     1.13897e+07	
       983.108	     1.18491e+07	
       983.508	     1.23305e+07	
       983.863	     1.27832e+07	
       983.893	     1.28225e+07	
       983.908	     1.28422e+07	
       983.923	     1.28619e+07	
       983.983	     1.29425e+07	
       984.103	     1.30962e+07	
       984.344	     1.33950e+07	
       984.824	     1.40018e+07	
