# Koester WD models
# teff = 15250 K (value for the effective temperature for the model. Temperatures are given in K)
# logg = 9.25 log(cm/s2) (value for Log(G) for the model.)
#
#   WAVELENGTH	#           FLUX	
#   (ANGSTROM)	#  (ERG/CM2/S/A)	
##############	################	
       899.230	     3.52270e+05	
       904.235	     3.73488e+05	
       908.450	     3.92118e+05	
       909.241	     3.95690e+05	
       910.032	     3.99284e+05	
       911.193	     4.04593e+05	
       911.613	     4.06513e+05	
       911.824	     4.07465e+05	
       911.929	     4.07939e+05	
       912.034	     4.08410e+05	
       912.139	     4.13946e+05	
       912.244	     4.19513e+05	
       912.349	     4.25101e+05	
       912.454	     4.30706e+05	
       912.559	     4.36342e+05	
       912.664	     4.42010e+05	
       912.770	     4.47627e+05	
       912.875	     4.53093e+05	
       912.886	     4.53652e+05	
       913.085	     4.62923e+05	
       913.284	     4.70808e+05	
       913.339	     4.72386e+05	
       913.435	     4.75172e+05	
       913.483	     4.76818e+05	
       913.531	     4.77993e+05	
       913.625	     4.78886e+05	
       913.724	     4.80089e+05	
       913.822	     4.82234e+05	
       913.871	     4.82162e+05	
       914.018	     4.77767e+05	
       914.049	     4.77352e+05	
       914.165	     4.76894e+05	
       914.181	     4.76985e+05	
       914.312	     4.76008e+05	
       914.444	     4.65094e+05	
       914.575	     4.55572e+05	
       914.606	     4.56916e+05	
       914.707	     4.67588e+05	
       914.723	     4.69096e+05	
       914.839	     4.67620e+05	
       914.955	     4.36590e+05	
       915.071	     4.17006e+05	
       915.187	     4.41309e+05	
       915.303	     4.78072e+05	
       915.419	     4.71248e+05	
       915.428	     4.68355e+05	
       915.535	     4.16057e+05	
       915.609	     3.83098e+05	
       915.643	     3.75408e+05	
       915.677	     3.73102e+05	
       915.745	     3.86592e+05	
       915.881	     4.68619e+05	
       916.017	     5.29581e+05	
       916.153	     4.96928e+05	
       916.289	     3.95998e+05	
       916.379	     3.46684e+05	
       916.421	     3.39418e+05	
       916.425	     3.39308e+05	
       916.429	     3.39301e+05	
       916.479	     3.47919e+05	
       916.580	     4.10213e+05	
       916.680	     5.06494e+05	
       916.780	     5.86953e+05	
       916.880	     6.24596e+05	
       916.980	     6.05218e+05	
       917.080	     5.37687e+05	
       917.180	     4.36128e+05	
       917.182	     4.33958e+05	
       917.280	     3.43926e+05	
       917.378	     3.13861e+05	
       917.575	     4.41636e+05	
       917.771	     6.63910e+05	
       917.967	     7.70246e+05	
       918.163	     6.97584e+05	
       918.359	     4.82344e+05	
       918.510	     3.24790e+05	
       918.556	     3.05069e+05	
       918.602	     2.99713e+05	
       918.694	     3.25661e+05	
       918.878	     5.36480e+05	
       919.062	     7.76910e+05	
       919.201	     9.06931e+05	
       919.241	     9.32663e+05	
       919.246	     9.35500e+05	
       919.251	     9.38255e+05	
       919.301	     9.59951e+05	
       919.402	     9.76203e+05	
       919.502	     9.62116e+05	
       919.602	     9.10864e+05	
       919.702	     8.26952e+05	
       919.802	     7.14961e+05	
       919.902	     5.83918e+05	
       920.002	     4.49044e+05	
       920.102	     3.31661e+05	
       920.165	     3.00546e+05	
       920.189	     2.96644e+05	
       920.202	     2.95828e+05	
       920.215	     2.95568e+05	
       920.265	     3.00932e+05	
       920.366	     3.72722e+05	
       920.466	     5.01719e+05	
       920.566	     6.43225e+05	
       920.666	     7.87007e+05	
       920.766	     9.13198e+05	
       920.866	     1.02553e+06	
       920.966	     1.11271e+06	
       921.066	     1.17888e+06	
       921.166	     1.22223e+06	
       921.266	     1.24274e+06	
       921.367	     1.24300e+06	
       921.467	     1.22089e+06	
       921.567	     1.17463e+06	
       921.667	     1.10540e+06	
       921.767	     1.01483e+06	
       921.867	     9.02712e+05	
       921.967	     7.77249e+05	
       922.067	     6.34520e+05	
       922.167	     4.88247e+05	
       922.267	     3.58101e+05	
       922.331	     3.08308e+05	
       922.368	     3.00676e+05	
       922.405	     2.99380e+05	
       922.479	     3.08889e+05	
       922.627	     4.70802e+05	
       922.740	     6.38654e+05	
       922.775	     6.90676e+05	
       922.810	     7.44535e+05	
       922.880	     8.45079e+05	
       923.020	     1.03172e+06	
       923.160	     1.19758e+06	
       923.301	     1.33936e+06	
       923.441	     1.45357e+06	
       923.581	     1.53685e+06	
       923.721	     1.59161e+06	
       923.861	     1.62171e+06	
       924.001	     1.62867e+06	
       924.141	     1.60989e+06	
       924.282	     1.56324e+06	
       924.422	     1.48590e+06	
       924.562	     1.37482e+06	
       924.702	     1.24005e+06	
       924.842	     1.08410e+06	
       924.982	     9.02243e+05	
       925.122	     6.98819e+05	
       925.262	     4.80057e+05	
       925.322	     3.94367e+05	
       925.403	     3.18366e+05	
       925.484	     3.09876e+05	
       925.646	     3.95957e+05	
       925.808	     6.46788e+05	
       925.970	     8.94600e+05	
       926.132	     1.11814e+06	
       926.220	     1.22955e+06	
       926.295	     1.31731e+06	
       926.369	     1.40387e+06	
       926.517	     1.56679e+06	
       926.665	     1.70729e+06	
       926.813	     1.82645e+06	
       926.961	     1.92518e+06	
       927.109	     2.00299e+06	
       927.257	     2.06477e+06	
       927.406	     2.11219e+06	
       927.554	     2.14450e+06	
       927.702	     2.16351e+06	
       927.850	     2.16913e+06	
       927.998	     2.16107e+06	
       928.038	     2.15577e+06	
       928.110	     2.14006e+06	
       928.146	     2.13042e+06	
       928.182	     2.11952e+06	
       928.327	     2.06336e+06	
       928.471	     1.98637e+06	
       928.615	     1.88830e+06	
       928.717	     1.80801e+06	
       928.759	     1.77154e+06	
       928.903	     1.65301e+06	
       928.917	     1.64063e+06	
       929.089	     1.47455e+06	
       929.261	     1.28037e+06	
       929.325	     1.20278e+06	
       929.434	     1.05883e+06	
       929.543	     9.04835e+05	
       929.652	     7.34891e+05	
       929.719	     6.24995e+05	
       929.753	     5.68371e+05	
       929.755	     5.64971e+05	
       929.761	     5.54824e+05	
       929.769	     5.41303e+05	
       929.819	     4.59175e+05	
       929.827	     4.46810e+05	
       929.883	     3.69326e+05	
       929.910	     3.43668e+05	
       929.939	     3.30071e+05	
       929.954	     3.28293e+05	
       929.968	     3.27728e+05	
       929.982	     3.27662e+05	
       929.996	     3.27696e+05	
       930.010	     3.27750e+05	
       930.024	     3.27813e+05	
       930.038	     3.27891e+05	
       930.052	     3.28070e+05	
       930.081	     3.30656e+05	
       930.137	     3.70485e+05	
       930.201	     4.61299e+05	
       930.247	     5.37545e+05	
       930.249	     5.40982e+05	
       930.251	     5.44422e+05	
       930.301	     6.29308e+05	
       930.326	     6.69012e+05	
       930.402	     7.95379e+05	
       930.478	     9.14904e+05	
       930.630	     1.13487e+06	
       930.633	     1.13903e+06	
       930.782	     1.33390e+06	
       930.931	     1.51471e+06	
       931.080	     1.67750e+06	
       931.229	     1.82797e+06	
       931.379	     1.98191e+06	
       931.516	     2.11784e+06	
       931.528	     2.12949e+06	
       931.677	     2.26424e+06	
       931.838	     2.39738e+06	
       931.999	     2.51469e+06	
       932.160	     2.60611e+06	
       932.321	     2.68794e+06	
       932.483	     2.75900e+06	
       932.644	     2.82143e+06	
       932.805	     2.87202e+06	
       932.966	     2.91179e+06	
       933.127	     2.94434e+06	
       933.173	     2.95231e+06	
       933.265	     2.96644e+06	
       933.288	     2.96958e+06	
       933.403	     2.98284e+06	
       933.432	     2.98535e+06	
       933.542	     2.99264e+06	
       933.652	     2.99572e+06	
       933.762	     2.99445e+06	
       933.872	     2.98853e+06	
       933.982	     2.97596e+06	
       934.092	     2.95570e+06	
       934.202	     2.92915e+06	
       934.312	     2.89595e+06	
       934.413	     2.86072e+06	
       934.422	     2.85753e+06	
       934.533	     2.81435e+06	
       934.652	     2.75967e+06	
       934.771	     2.69649e+06	
       934.890	     2.62590e+06	
       935.009	     2.54639e+06	
       935.026	     2.53421e+06	
       935.128	     2.46305e+06	
       935.230	     2.39600e+06	
       935.332	     2.32489e+06	
       935.434	     2.25043e+06	
       935.537	     2.17132e+06	
       935.639	     2.08734e+06	
       935.741	     2.00005e+06	
       935.843	     1.90609e+06	
       935.945	     1.80495e+06	
       935.950	     1.79986e+06	
       936.047	     1.69789e+06	
       936.144	     1.58847e+06	
       936.338	     1.35493e+06	
       936.464	     1.18722e+06	
       936.532	     1.08821e+06	
       936.601	     9.83755e+05	
       936.645	     9.12428e+05	
       936.714	     7.96102e+05	
       936.737	     7.56059e+05	
       936.829	     5.94754e+05	
       936.887	     4.90638e+05	
       936.944	     4.02111e+05	
       936.973	     3.71528e+05	
       937.001	     3.58572e+05	
       937.015	     3.57570e+05	
       937.029	     3.57425e+05	
       937.043	     3.57472e+05	
       937.058	     3.57538e+05	
       937.072	     3.57601e+05	
       937.086	     3.57661e+05	
       937.101	     3.57727e+05	
       937.115	     3.57802e+05	
       937.143	     3.59197e+05	
       937.150	     3.60903e+05	
       937.186	     3.86692e+05	
       937.199	     4.02058e+05	
       937.250	     4.81056e+05	
       937.314	     5.96306e+05	
       937.341	     6.45748e+05	
       937.442	     8.23594e+05	
       937.543	     9.94144e+05	
       937.645	     1.15129e+06	
       937.746	     1.29616e+06	
       937.847	     1.43051e+06	
       937.896	     1.49348e+06	
       937.948	     1.55836e+06	
       938.000	     1.62198e+06	
       938.104	     1.74619e+06	
       938.208	     1.86280e+06	
       938.312	     1.97447e+06	
       938.416	     2.07912e+06	
       938.520	     2.17873e+06	
       938.543	     2.20053e+06	
       938.556	     2.21288e+06	
       938.624	     2.27664e+06	
       938.729	     2.37036e+06	
       938.914	     2.53224e+06	
       939.093	     2.68853e+06	
       939.271	     2.85628e+06	
       939.449	     3.01371e+06	
       939.628	     3.16051e+06	
       939.807	     3.30056e+06	
       939.986	     3.44139e+06	
       940.164	     3.57394e+06	
       940.343	     3.69109e+06	
       940.521	     3.79954e+06	
       940.580	     3.83343e+06	
       940.660	     3.87870e+06	
       940.700	     3.90085e+06	
       940.740	     3.92259e+06	
       940.901	     4.00735e+06	
       941.061	     4.08658e+06	
       941.221	     4.16051e+06	
       941.381	     4.22739e+06	
       941.541	     4.28400e+06	
       941.701	     4.33675e+06	
       941.861	     4.38560e+06	
       942.182	     4.47221e+06	
       942.502	     4.53935e+06	
       942.597	     4.55544e+06	
       942.822	     4.58673e+06	
       943.048	     4.60793e+06	
       943.273	     4.61751e+06	
       943.498	     4.61224e+06	
       943.723	     4.59320e+06	
       943.948	     4.55968e+06	
       944.174	     4.50784e+06	
       944.399	     4.43671e+06	
       944.624	     4.34774e+06	
       944.849	     4.24586e+06	
       945.074	     4.13468e+06	
       945.258	     4.03280e+06	
       945.292	     4.01282e+06	
       945.300	     4.00808e+06	
       945.308	     4.00330e+06	
       945.358	     3.97292e+06	
       945.458	     3.91172e+06	
       945.658	     3.78066e+06	
       945.858	     3.63781e+06	
       946.058	     3.50259e+06	
       946.159	     3.43307e+06	
       946.258	     3.36314e+06	
       946.410	     3.25837e+06	
       946.659	     3.08147e+06	
       946.908	     2.89552e+06	
       947.108	     2.73864e+06	
       947.158	     2.69838e+06	
       947.208	     2.65761e+06	
       947.308	     2.57458e+06	
       947.509	     2.39871e+06	
       947.709	     2.20885e+06	
       947.735	     2.18267e+06	
       947.909	     1.99625e+06	
       948.083	     1.78902e+06	
       948.257	     1.56215e+06	
       948.317	     1.47780e+06	
       948.431	     1.30716e+06	
       948.546	     1.11850e+06	
       948.660	     9.10232e+05	
       948.727	     7.82392e+05	
       948.761	     7.16481e+05	
       948.771	     6.96516e+05	
       948.774	     6.90550e+05	
       948.777	     6.84597e+05	
       948.827	     5.82791e+05	
       948.835	     5.67453e+05	
       948.893	     4.63448e+05	
       948.922	     4.27542e+05	
       948.951	     4.13167e+05	
       948.966	     4.12724e+05	
       948.980	     4.12768e+05	
       948.994	     4.12837e+05	
       949.009	     4.12912e+05	
       949.023	     4.12981e+05	
       949.037	     4.13047e+05	
       949.052	     4.13123e+05	
       949.066	     4.13192e+05	
       949.095	     4.13873e+05	
       949.153	     4.64865e+05	
       949.230	     6.07606e+05	
       949.258	     6.66150e+05	
       949.269	     6.88411e+05	
       949.280	     7.10584e+05	
       949.330	     8.08916e+05	
       949.360	     8.66957e+05	
       949.430	     1.00152e+06	
       949.500	     1.13003e+06	
       949.640	     1.36563e+06	
       949.781	     1.57573e+06	
       949.795	     1.59583e+06	
       949.879	     1.71260e+06	
       949.921	     1.76852e+06	
       949.963	     1.82395e+06	
       950.131	     2.03492e+06	
       950.299	     2.22727e+06	
       950.467	     2.40314e+06	
       950.635	     2.56860e+06	
       950.719	     2.64821e+06	
       950.804	     2.72567e+06	
       950.888	     2.80183e+06	
       951.056	     2.95130e+06	
       951.392	     3.24024e+06	
       951.728	     3.51915e+06	
       952.065	     3.80931e+06	
       952.401	     4.11759e+06	
       952.688	     4.37938e+06	
       952.737	     4.42443e+06	
       952.788	     4.47130e+06	
       952.888	     4.56285e+06	
       953.089	     4.74396e+06	
       953.489	     5.11583e+06	
       953.889	     5.49628e+06	
       954.290	     5.85964e+06	
       954.490	     6.03679e+06	
       954.690	     6.21102e+06	
       954.890	     6.37715e+06	
       955.090	     6.52804e+06	
       955.290	     6.67463e+06	
       955.491	     6.81842e+06	
       955.691	     6.95803e+06	
       955.768	     7.01065e+06	
       955.891	     7.08822e+06	
       956.014	     7.16346e+06	
       956.260	     7.31363e+06	
       956.753	     7.60046e+06	
       957.245	     7.87010e+06	
       957.738	     8.12039e+06	
       958.156	     8.31617e+06	
       958.230	     8.34888e+06	
       958.722	     8.55393e+06	
       959.289	     8.75530e+06	
       959.572	     8.84189e+06	
       959.855	     8.91750e+06	
       960.139	     8.98241e+06	
       960.380	     9.02765e+06	
       960.414	     9.03327e+06	
       960.422	     9.03459e+06	
       960.430	     9.03588e+06	
       960.480	     9.04584e+06	
       960.580	     9.06447e+06	
       960.780	     9.09617e+06	
       961.180	     9.13644e+06	
       961.581	     9.14571e+06	
       961.981	     9.12180e+06	
       962.381	     9.06324e+06	
       962.782	     8.97104e+06	
       963.182	     8.84201e+06	
       963.582	     8.68094e+06	
       963.735	     8.61164e+06	
       963.983	     8.48937e+06	
       964.231	     8.35211e+06	
       964.479	     8.21106e+06	
       964.976	     7.89944e+06	
       965.472	     7.55735e+06	
       965.968	     7.18988e+06	
       966.465	     6.80962e+06	
       966.883	     6.48422e+06	
       967.458	     6.03132e+06	
       968.032	     5.57202e+06	
       968.606	     5.09271e+06	
       969.065	     4.69297e+06	
       969.132	     4.63281e+06	
       969.181	     4.58833e+06	
       969.297	     4.48154e+06	
       969.331	     4.45035e+06	
       969.529	     4.26129e+06	
       969.728	     4.06371e+06	
       969.927	     3.85646e+06	
       970.125	     3.63803e+06	
       970.324	     3.40627e+06	
       970.522	     3.15903e+06	
       970.568	     3.09915e+06	
       970.721	     2.88641e+06	
       970.874	     2.65425e+06	
       971.027	     2.39945e+06	
       971.181	     2.11020e+06	
       971.292	     1.87117e+06	
       971.320	     1.80709e+06	
       971.334	     1.77387e+06	
       971.348	     1.74018e+06	
       971.404	     1.59926e+06	
       971.447	     1.48523e+06	
       971.467	     1.42972e+06	
       971.516	     1.28818e+06	
       971.585	     1.07656e+06	
       971.644	     8.92146e+05	
       971.703	     7.15070e+05	
       971.732	     6.38438e+05	
       971.762	     5.74528e+05	
       971.778	     5.51579e+05	
       971.792	     5.40301e+05	
       971.806	     5.37124e+05	
       971.821	     5.37080e+05	
       971.827	     5.37118e+05	
       971.833	     5.37153e+05	
       971.836	     5.37172e+05	
       971.839	     5.37190e+05	
       971.851	     5.37263e+05	
       971.866	     5.37360e+05	
       971.880	     5.38708e+05	
       971.910	     5.65600e+05	
       971.969	     7.00321e+05	
       972.037	     9.05134e+05	
       972.087	     1.06319e+06	
       972.137	     1.21985e+06	
       972.150	     1.25968e+06	
       972.237	     1.51179e+06	
       972.324	     1.73828e+06	
       972.499	     2.12722e+06	
       972.548	     2.22325e+06	
       972.673	     2.45063e+06	
       972.798	     2.65336e+06	
       972.923	     2.83799e+06	
       973.048	     3.00571e+06	
       973.173	     3.16098e+06	
       973.298	     3.30562e+06	
       973.351	     3.36461e+06	
       973.423	     3.44278e+06	
       973.548	     3.57388e+06	
       973.746	     3.77082e+06	
       973.943	     3.95863e+06	
       974.140	     4.13462e+06	
       974.337	     4.30590e+06	
       974.731	     4.63740e+06	
       975.126	     4.94901e+06	
       975.400	     5.15856e+06	
       975.520	     5.24354e+06	
       975.640	     5.32886e+06	
       975.880	     5.50124e+06	
       976.361	     5.83871e+06	
       976.601	     6.01423e+06	
       976.841	     6.19912e+06	
       977.081	     6.39757e+06	
       977.321	     6.61029e+06	
       977.802	     7.01078e+06	
       978.042	     7.22613e+06	
       978.282	     7.43628e+06	
       978.522	     7.66602e+06	
       978.762	     7.92187e+06	
       979.003	     8.21250e+06	
       979.181	     8.45233e+06	
       979.243	     8.54259e+06	
       979.305	     8.63643e+06	
       979.429	     8.80296e+06	
       979.553	     8.98021e+06	
       979.677	     9.16981e+06	
       979.801	     9.37527e+06	
       979.925	     9.60121e+06	
       980.049	     9.79467e+06	
       980.173	     9.96381e+06	
       980.298	     1.01404e+07	
       980.422	     1.03259e+07	
       980.546	     1.05201e+07	
       980.794	     1.08755e+07	
       981.042	     1.11974e+07	
       981.290	     1.15340e+07	
       981.787	     1.21999e+07	
       982.283	     1.28583e+07	
       982.779	     1.35028e+07	
       983.276	     1.41651e+07	
       983.621	     1.46632e+07	
       983.772	     1.48868e+07	
       983.923	     1.51145e+07	
       984.226	     1.55552e+07	
       984.830	     1.64201e+07	
       985.459	     1.72790e+07	
       986.039	     1.80972e+07	
       986.329	     1.84911e+07	
       986.618	     1.88823e+07	
       986.907	     1.91861e+07	
       987.198	     1.94022e+07	
       987.487	     1.96084e+07	
       987.777	     1.97934e+07	
       988.066	     1.99680e+07	
       988.357	     2.02497e+07	
       988.560	     2.04667e+07	
       988.646	     2.05590e+07	
       988.936	     2.08232e+07	
       989.124	     2.09540e+07	
       989.312	     2.10814e+07	
       989.500	     2.12092e+07	
       989.689	     2.12169e+07	
       989.877	     2.12184e+07	
       990.065	     2.12153e+07	
       990.441	     2.12748e+07	
       990.629	     2.13216e+07	
