# Koester WD models
# teff = 16000 K (value for the effective temperature for the model. Temperatures are given in K)
# logg = 9 log(cm/s2) (value for Log(G) for the model.)
#
#   WAVELENGTH	#           FLUX	
#   (ANGSTROM)	#  (ERG/CM2/S/A)	
##############	################	
       899.230	     6.11825e+05	
       904.235	     6.46779e+05	
       908.450	     6.77378e+05	
       909.241	     6.83237e+05	
       910.032	     6.89127e+05	
       911.193	     6.97829e+05	
       911.613	     7.00974e+05	
       911.824	     7.02536e+05	
       911.929	     7.03311e+05	
       912.034	     7.04081e+05	
       912.139	     7.14417e+05	
       912.244	     7.24797e+05	
       912.349	     7.35199e+05	
       912.454	     7.45610e+05	
       912.559	     7.56009e+05	
       912.664	     7.66297e+05	
       912.770	     7.76441e+05	
       912.875	     7.86278e+05	
       912.886	     7.87280e+05	
       913.085	     8.03374e+05	
       913.284	     8.16217e+05	
       913.339	     8.18432e+05	
       913.435	     8.22290e+05	
       913.483	     8.24945e+05	
       913.531	     8.26902e+05	
       913.625	     8.27690e+05	
       913.724	     8.27976e+05	
       913.822	     8.30744e+05	
       913.871	     8.30942e+05	
       914.018	     8.22912e+05	
       914.165	     8.15020e+05	
       914.312	     8.22045e+05	
       914.343	     8.21250e+05	
       914.459	     7.94396e+05	
       914.575	     7.70928e+05	
       914.692	     8.00201e+05	
       914.808	     8.21448e+05	
       914.924	     7.70557e+05	
       915.009	     7.16805e+05	
       915.040	     7.05275e+05	
       915.071	     7.01703e+05	
       915.133	     7.20722e+05	
       915.257	     8.11778e+05	
       915.381	     8.45535e+05	
       915.505	     7.49776e+05	
       915.609	     6.50175e+05	
       915.617	     6.45509e+05	
       915.630	     6.37586e+05	
       915.643	     6.31765e+05	
       915.677	     6.25752e+05	
       915.745	     6.55660e+05	
       915.881	     8.20637e+05	
       916.017	     9.28061e+05	
       916.153	     8.74211e+05	
       916.289	     6.89774e+05	
       916.379	     5.83611e+05	
       916.421	     5.66388e+05	
       916.425	     5.66109e+05	
       916.429	     5.66055e+05	
       916.479	     5.85486e+05	
       916.580	     7.15724e+05	
       916.680	     8.88870e+05	
       916.780	     1.02379e+06	
       916.880	     1.08589e+06	
       916.980	     1.05539e+06	
       917.080	     9.43709e+05	
       917.180	     7.71424e+05	
       917.182	     7.67526e+05	
       917.280	     5.90557e+05	
       917.378	     5.20091e+05	
       917.575	     7.80196e+05	
       917.771	     1.14911e+06	
       917.967	     1.32013e+06	
       918.163	     1.20474e+06	
       918.359	     8.54557e+05	
       918.510	     5.54026e+05	
       918.556	     5.06315e+05	
       918.602	     4.92614e+05	
       918.694	     5.55462e+05	
       918.873	     9.31878e+05	
       918.878	     9.43832e+05	
       919.062	     1.33109e+06	
       919.251	     1.58980e+06	
       919.441	     1.64875e+06	
       919.630	     1.51219e+06	
       919.819	     1.19924e+06	
       920.008	     7.86865e+05	
       920.165	     4.94999e+05	
       920.179	     4.88320e+05	
       920.197	     4.83271e+05	
       920.215	     4.81801e+05	
       920.265	     4.95608e+05	
       920.366	     6.57004e+05	
       920.466	     8.89511e+05	
       920.566	     1.12071e+06	
       920.766	     1.54974e+06	
       920.966	     1.87177e+06	
       921.166	     2.04996e+06	
       921.367	     2.08326e+06	
       921.567	     1.97046e+06	
       921.767	     1.71229e+06	
       921.967	     1.33499e+06	
       922.167	     8.68537e+05	
       922.331	     5.11216e+05	
       922.368	     4.88998e+05	
       922.405	     4.84899e+05	
       922.479	     5.12136e+05	
       922.627	     8.38554e+05	
       922.670	     9.43530e+05	
       922.740	     1.11581e+06	
       922.775	     1.19802e+06	
       922.810	     1.28332e+06	
       922.950	     1.59189e+06	
       923.090	     1.87790e+06	
       923.230	     2.12555e+06	
       923.371	     2.33639e+06	
       923.511	     2.49752e+06	
       923.651	     2.61162e+06	
       923.791	     2.67865e+06	
       923.931	     2.70867e+06	
       924.071	     2.70034e+06	
       924.211	     2.64684e+06	
       924.352	     2.54621e+06	
       924.492	     2.39226e+06	
       924.632	     2.18989e+06	
       924.772	     1.95458e+06	
       924.912	     1.68001e+06	
       925.052	     1.38061e+06	
       925.192	     1.03941e+06	
       925.333	     6.68902e+05	
       925.434	     5.04398e+05	
       925.462	     5.00028e+05	
       925.473	     4.99629e+05	
       925.484	     4.99589e+05	
       925.534	     5.05008e+05	
       925.634	     6.68716e+05	
       925.734	     9.37008e+05	
       925.834	     1.19644e+06	
       925.934	     1.44047e+06	
       926.034	     1.66426e+06	
       926.134	     1.88134e+06	
       926.232	     2.07903e+06	
       926.234	     2.08290e+06	
       926.301	     2.21015e+06	
       926.335	     2.27556e+06	
       926.369	     2.33908e+06	
       926.505	     2.58432e+06	
       926.641	     2.79790e+06	
       926.777	     2.98147e+06	
       926.913	     3.13655e+06	
       927.049	     3.26075e+06	
       927.185	     3.36238e+06	
       927.322	     3.44268e+06	
       927.458	     3.50438e+06	
       927.594	     3.54409e+06	
       927.730	     3.56750e+06	
       927.866	     3.57265e+06	
       928.002	     3.55920e+06	
       928.006	     3.55848e+06	
       928.094	     3.53234e+06	
       928.138	     3.51422e+06	
       928.182	     3.49307e+06	
       928.359	     3.37718e+06	
       928.535	     3.20948e+06	
       928.711	     2.99700e+06	
       928.887	     2.76154e+06	
       928.985	     2.61729e+06	
       929.037	     2.53499e+06	
       929.063	     2.49234e+06	
       929.089	     2.44877e+06	
       929.125	     2.38644e+06	
       929.193	     2.26271e+06	
       929.261	     2.13449e+06	
       929.398	     1.86008e+06	
       929.493	     1.65305e+06	
       929.525	     1.58086e+06	
       929.534	     1.56010e+06	
       929.543	     1.53914e+06	
       929.593	     1.42066e+06	
       929.617	     1.36145e+06	
       929.655	     1.26484e+06	
       929.693	     1.16583e+06	
       929.769	     9.58390e+05	
       929.827	     7.92859e+05	
       929.883	     6.38277e+05	
       929.910	     5.76972e+05	
       929.939	     5.37150e+05	
       929.954	     5.29918e+05	
       929.968	     5.27275e+05	
       929.982	     5.26754e+05	
       929.996	     5.26675e+05	
       930.010	     5.26735e+05	
       930.024	     5.26855e+05	
       930.038	     5.27109e+05	
       930.052	     5.27806e+05	
       930.081	     5.38061e+05	
       930.137	     6.40181e+05	
       930.201	     8.19403e+05	
       930.247	     9.52195e+05	
       930.249	     9.57919e+05	
       930.251	     9.63636e+05	
       930.301	     1.10433e+06	
       930.326	     1.16877e+06	
       930.402	     1.36848e+06	
       930.478	     1.55562e+06	
       930.630	     1.90335e+06	
       930.633	     1.91006e+06	
       930.782	     2.22192e+06	
       930.931	     2.51410e+06	
       931.080	     2.77935e+06	
       931.229	     3.02265e+06	
       931.379	     3.27175e+06	
       931.516	     3.49009e+06	
       931.528	     3.50881e+06	
       931.677	     3.72649e+06	
       931.838	     3.93855e+06	
       931.999	     4.12507e+06	
       932.160	     4.26876e+06	
       932.321	     4.39691e+06	
       932.483	     4.50797e+06	
       932.644	     4.60570e+06	
       932.805	     4.68550e+06	
       932.966	     4.74805e+06	
       933.127	     4.79900e+06	
       933.173	     4.81144e+06	
       933.265	     4.83353e+06	
       933.288	     4.83840e+06	
       933.403	     4.85904e+06	
       933.432	     4.86293e+06	
       933.542	     4.87409e+06	
       933.652	     4.87867e+06	
       933.762	     4.87644e+06	
       933.872	     4.86689e+06	
       933.982	     4.84682e+06	
       934.092	     4.81452e+06	
       934.202	     4.77224e+06	
       934.312	     4.71911e+06	
       934.413	     4.66269e+06	
       934.422	     4.65757e+06	
       934.533	     4.58936e+06	
       934.652	     4.50281e+06	
       934.771	     4.40319e+06	
       934.890	     4.29170e+06	
       935.009	     4.16494e+06	
       935.026	     4.14568e+06	
       935.128	     4.03311e+06	
       935.230	     3.92721e+06	
       935.332	     3.81427e+06	
       935.434	     3.69470e+06	
       935.537	     3.56813e+06	
       935.639	     3.43373e+06	
       935.741	     3.29295e+06	
       935.843	     3.14149e+06	
       935.945	     2.97874e+06	
       935.950	     2.97053e+06	
       936.047	     2.80439e+06	
       936.144	     2.62799e+06	
       936.338	     2.25252e+06	
       936.464	     1.98562e+06	
       936.532	     1.83045e+06	
       936.601	     1.66634e+06	
       936.645	     1.55551e+06	
       936.714	     1.37314e+06	
       936.737	     1.31046e+06	
       936.829	     1.04775e+06	
       936.887	     8.67350e+05	
       936.944	     6.92448e+05	
       936.973	     6.18589e+05	
       937.001	     5.78565e+05	
       937.015	     5.73633e+05	
       937.029	     5.72445e+05	
       937.043	     5.72433e+05	
       937.058	     5.72518e+05	
       937.072	     5.72612e+05	
       937.086	     5.72706e+05	
       937.101	     5.72822e+05	
       937.115	     5.73023e+05	
       937.143	     5.79530e+05	
       937.150	     5.85489e+05	
       937.186	     6.55763e+05	
       937.199	     6.91744e+05	
       937.250	     8.49081e+05	
       937.314	     1.05036e+06	
       937.341	     1.13213e+06	
       937.442	     1.41703e+06	
       937.543	     1.68306e+06	
       937.645	     1.92943e+06	
       937.746	     2.15919e+06	
       937.847	     2.37269e+06	
       937.896	     2.47398e+06	
       937.948	     2.57875e+06	
       938.000	     2.68055e+06	
       938.104	     2.88053e+06	
       938.208	     3.06974e+06	
       938.312	     3.24885e+06	
       938.416	     3.41739e+06	
       938.520	     3.57711e+06	
       938.543	     3.61189e+06	
       938.624	     3.73297e+06	
       938.729	     3.88285e+06	
       938.914	     4.13930e+06	
       938.927	     4.15686e+06	
       939.099	     4.39521e+06	
       939.271	     4.64971e+06	
       939.443	     4.88775e+06	
       939.615	     5.11235e+06	
       939.788	     5.32437e+06	
       939.960	     5.53882e+06	
       940.132	     5.74186e+06	
       940.304	     5.92451e+06	
       940.476	     6.09123e+06	
       940.556	     6.16578e+06	
       940.648	     6.24869e+06	
       940.740	     6.32886e+06	
       940.925	     6.47831e+06	
       941.109	     6.61755e+06	
       941.293	     6.74616e+06	
       941.477	     6.85461e+06	
       941.661	     6.95093e+06	
       941.845	     7.03968e+06	
       942.030	     7.12070e+06	
       942.214	     7.19415e+06	
       942.398	     7.25611e+06	
       942.485	     7.28171e+06	
       942.582	     7.30769e+06	
       942.766	     7.34925e+06	
       943.048	     7.39223e+06	
       943.329	     7.40703e+06	
       943.610	     7.38582e+06	
       943.750	     7.36198e+06	
       943.891	     7.32896e+06	
       944.031	     7.28664e+06	
       944.173	     7.22984e+06	
       944.313	     7.16179e+06	
       944.454	     7.08294e+06	
       944.594	     6.99293e+06	
       944.725	     6.89903e+06	
       944.735	     6.89143e+06	
       944.870	     6.79445e+06	
       945.016	     6.68173e+06	
       945.161	     6.55943e+06	
       945.308	     6.42751e+06	
       945.454	     6.28824e+06	
       945.599	     6.14153e+06	
       945.745	     5.98499e+06	
       945.890	     5.81949e+06	
       946.181	     5.51148e+06	
       946.473	     5.19553e+06	
       946.764	     4.86906e+06	
       946.952	     4.64667e+06	
       947.055	     4.52012e+06	
       947.158	     4.39129e+06	
       947.261	     4.25802e+06	
       947.364	     4.11966e+06	
       947.468	     3.97625e+06	
       947.571	     3.82693e+06	
       947.674	     3.66969e+06	
       947.777	     3.50366e+06	
       947.880	     3.32632e+06	
       947.883	     3.32098e+06	
       947.983	     3.13635e+06	
       948.083	     2.94155e+06	
       948.183	     2.73733e+06	
       948.283	     2.52158e+06	
       948.383	     2.29339e+06	
       948.421	     2.20080e+06	
       948.483	     2.04604e+06	
       948.546	     1.88226e+06	
       948.563	     1.83581e+06	
       948.670	     1.52940e+06	
       948.777	     1.19707e+06	
       948.843	     9.68333e+05	
       948.875	     8.53238e+05	
       948.884	     8.21969e+05	
       948.893	     7.92649e+05	
       948.922	     7.05533e+05	
       948.935	     6.77032e+05	
       948.943	     6.65886e+05	
       948.951	     6.60093e+05	
       948.966	     6.57215e+05	
       948.980	     6.57064e+05	
       948.994	     6.57168e+05	
       949.009	     6.57281e+05	
       949.023	     6.57385e+05	
       949.037	     6.57488e+05	
       949.052	     6.57601e+05	
       949.066	     6.57708e+05	
       949.095	     6.61176e+05	
       949.153	     7.94955e+05	
       949.230	     1.06708e+06	
       949.258	     1.16656e+06	
       949.269	     1.20339e+06	
       949.280	     1.24005e+06	
       949.330	     1.39976e+06	
       949.360	     1.49226e+06	
       949.430	     1.70181e+06	
       949.500	     1.90070e+06	
       949.640	     2.26794e+06	
       949.781	     2.59956e+06	
       949.795	     2.63104e+06	
       949.879	     2.81774e+06	
       949.921	     2.90778e+06	
       949.963	     2.99606e+06	
       950.131	     3.33386e+06	
       950.299	     3.64126e+06	
       950.467	     3.92196e+06	
       950.635	     4.18331e+06	
       950.719	     4.30882e+06	
       950.804	     4.43150e+06	
       950.888	     4.55116e+06	
       951.056	     4.78421e+06	
       951.224	     5.01191e+06	
       951.392	     5.23399e+06	
       951.728	     5.66593e+06	
       952.065	     6.11775e+06	
       952.401	     6.59954e+06	
       952.688	     7.01018e+06	
       952.737	     7.08115e+06	
       952.788	     7.15498e+06	
       952.888	     7.29908e+06	
       953.089	     7.58594e+06	
       953.489	     8.17779e+06	
       953.889	     8.79178e+06	
       954.290	     9.38164e+06	
       954.490	     9.67114e+06	
       954.690	     9.95668e+06	
       954.890	     1.02298e+07	
       955.090	     1.04772e+07	
       955.290	     1.07187e+07	
       955.491	     1.09541e+07	
       955.768	     1.12694e+07	
       955.891	     1.13972e+07	
       956.014	     1.15204e+07	
       956.260	     1.18014e+07	
       956.506	     1.20713e+07	
       956.999	     1.25776e+07	
       957.491	     1.30406e+07	
       957.984	     1.34583e+07	
       958.476	     1.38317e+07	
       958.648	     1.39507e+07	
       958.969	     1.41547e+07	
       959.289	     1.43355e+07	
       959.609	     1.44902e+07	
       959.929	     1.46212e+07	
       960.069	     1.46709e+07	
       960.250	     1.47272e+07	
       960.430	     1.47744e+07	
       960.790	     1.48756e+07	
       961.150	     1.49336e+07	
       961.511	     1.49478e+07	
       961.871	     1.49145e+07	
       962.231	     1.48344e+07	
       962.592	     1.47067e+07	
       962.952	     1.45300e+07	
       963.114	     1.44345e+07	
       963.312	     1.43060e+07	
       963.393	     1.42498e+07	
       963.672	     1.40372e+07	
       963.952	     1.38002e+07	
       964.231	     1.35392e+07	
       964.510	     1.32625e+07	
       964.789	     1.29659e+07	
       965.069	     1.26516e+07	
       965.348	     1.23241e+07	
       965.906	     1.16254e+07	
       966.465	     1.09059e+07	
       967.131	     1.00359e+07	
       967.582	     9.44781e+06	
       968.032	     8.86281e+06	
       968.568	     8.14854e+06	
       968.933	     7.65267e+06	
       969.297	     7.13952e+06	
       969.396	     6.99463e+06	
       969.661	     6.59461e+06	
       969.794	     6.38670e+06	
       969.927	     6.17248e+06	
       970.059	     5.94920e+06	
       970.192	     5.71726e+06	
       970.324	     5.47561e+06	
       970.457	     5.22126e+06	
       970.570	     4.99262e+06	
       970.589	     4.95184e+06	
       970.722	     4.66049e+06	
       970.874	     4.29622e+06	
       971.026	     3.89382e+06	
       971.179	     3.44023e+06	
       971.280	     3.10174e+06	
       971.314	     2.98036e+06	
       971.331	     2.91804e+06	
       971.348	     2.85453e+06	
       971.416	     2.58848e+06	
       971.519	     2.14498e+06	
       971.552	     1.99131e+06	
       971.585	     1.83289e+06	
       971.599	     1.76398e+06	
       971.644	     1.53817e+06	
       971.651	     1.50281e+06	
       971.703	     1.23707e+06	
       971.732	     1.09170e+06	
       971.762	     9.56756e+05	
       971.778	     8.99460e+05	
       971.792	     8.63929e+05	
       971.806	     8.47617e+05	
       971.821	     8.45673e+05	
       971.827	     8.45726e+05	
       971.833	     8.45780e+05	
       971.836	     8.45808e+05	
       971.839	     8.45836e+05	
       971.851	     8.45943e+05	
       971.866	     8.46383e+05	
       971.880	     8.55311e+05	
       971.910	     9.34891e+05	
       971.969	     1.20947e+06	
       972.037	     1.55932e+06	
       972.087	     1.81190e+06	
       972.137	     2.05443e+06	
       972.150	     2.11526e+06	
       972.237	     2.50184e+06	
       972.324	     2.85111e+06	
       972.499	     3.45946e+06	
       972.548	     3.61186e+06	
       972.673	     3.96956e+06	
       972.798	     4.29167e+06	
       972.923	     4.58179e+06	
       973.048	     4.84660e+06	
       973.173	     5.08925e+06	
       973.298	     5.31479e+06	
       973.423	     5.52942e+06	
       973.548	     5.73265e+06	
       973.601	     5.81600e+06	
       973.673	     5.92753e+06	
       973.746	     6.03657e+06	
       973.890	     6.24960e+06	
       974.034	     6.45362e+06	
       974.178	     6.64921e+06	
       974.466	     7.03293e+06	
       974.754	     7.40338e+06	
       975.043	     7.75691e+06	
       975.331	     8.10990e+06	
       975.556	     8.35796e+06	
       975.598	     8.40451e+06	
       975.619	     8.42782e+06	
       975.640	     8.45117e+06	
       975.724	     8.54485e+06	
       975.892	     8.73444e+06	
       976.228	     9.10430e+06	
       976.565	     9.48588e+06	
       976.901	     9.89800e+06	
       977.237	     1.03581e+07	
       977.574	     1.08005e+07	
       977.910	     1.12756e+07	
       978.246	     1.17471e+07	
       978.414	     1.19967e+07	
       978.582	     1.22633e+07	
       978.750	     1.25525e+07	
       978.919	     1.28666e+07	
       979.087	     1.32124e+07	
       979.105	     1.32515e+07	
       979.205	     1.34742e+07	
       979.255	     1.35907e+07	
       979.305	     1.37109e+07	
       979.505	     1.41410e+07	
       979.705	     1.46225e+07	
       979.905	     1.51621e+07	
       980.105	     1.56402e+07	
       980.306	     1.60849e+07	
       980.506	     1.65570e+07	
       980.906	     1.74215e+07	
       981.306	     1.82549e+07	
       982.107	     1.99007e+07	
       983.493	     2.27480e+07	
       983.708	     2.32356e+07	
       983.923	     2.37392e+07	
       984.354	     2.47045e+07	
       985.214	     2.65470e+07	
       985.531	     2.72169e+07	
       986.075	     2.84041e+07	
       986.347	     2.89742e+07	
       986.618	     2.95475e+07	
       986.889	     3.00261e+07	
       987.162	     3.03677e+07	
       987.185	     3.03960e+07	
       987.433	     3.06975e+07	
       987.705	     3.09964e+07	
       987.716	     3.10087e+07	
       987.982	     3.12850e+07	
       988.248	     3.16462e+07	
       988.515	     3.21222e+07	
       988.780	     3.25950e+07	
       989.046	     3.29292e+07	
       989.262	     3.31777e+07	
       989.312	     3.32343e+07	
       989.362	     3.32943e+07	
       989.462	     3.34127e+07	
       989.662	     3.34784e+07	
       989.863	     3.34922e+07	
       990.263	     3.35233e+07	
