# Koester WD models
# teff = 16500 K (value for the effective temperature for the model. Temperatures are given in K)
# logg = 9.5 log(cm/s2) (value for Log(G) for the model.)
#
#   WAVELENGTH	#           FLUX	
#   (ANGSTROM)	#  (ERG/CM2/S/A)	
##############	################	
       899.230	     1.08701e+06	
       904.235	     1.14542e+06	
       908.450	     1.19639e+06	
       909.241	     1.20613e+06	
       910.032	     1.21592e+06	
       911.193	     1.23034e+06	
       911.613	     1.23554e+06	
       911.824	     1.23813e+06	
       911.929	     1.23942e+06	
       912.034	     1.24070e+06	
       912.139	     1.25032e+06	
       912.244	     1.25991e+06	
       912.349	     1.26946e+06	
       912.454	     1.27896e+06	
       912.559	     1.28839e+06	
       912.664	     1.29772e+06	
       912.770	     1.30693e+06	
       912.875	     1.31595e+06	
       912.886	     1.31688e+06	
       913.037	     1.32932e+06	
       913.085	     1.33315e+06	
       913.241	     1.34508e+06	
       913.284	     1.34817e+06	
       913.531	     1.36437e+06	
       913.677	     1.37175e+06	
       913.822	     1.37887e+06	
       913.967	     1.38144e+06	
       914.059	     1.38352e+06	
       914.112	     1.38538e+06	
       914.165	     1.38638e+06	
       914.271	     1.38564e+06	
       914.377	     1.38100e+06	
       914.391	     1.37992e+06	
       914.448	     1.37802e+06	
       914.483	     1.37691e+06	
       914.575	     1.37599e+06	
       914.603	     1.37651e+06	
       914.760	     1.37557e+06	
       914.915	     1.35046e+06	
       915.071	     1.32940e+06	
       915.122	     1.33381e+06	
       915.226	     1.35383e+06	
       915.252	     1.35876e+06	
       915.382	     1.35829e+06	
       915.512	     1.29690e+06	
       915.609	     1.24773e+06	
       915.643	     1.23810e+06	
       915.677	     1.23841e+06	
       915.745	     1.26244e+06	
       915.881	     1.36324e+06	
       916.017	     1.42750e+06	
       916.153	     1.38210e+06	
       916.289	     1.24376e+06	
       916.379	     1.16638e+06	
       916.421	     1.15432e+06	
       916.425	     1.15431e+06	
       916.429	     1.15450e+06	
       916.479	     1.17457e+06	
       916.580	     1.28553e+06	
       916.680	     1.43008e+06	
       916.780	     1.54459e+06	
       916.880	     1.59643e+06	
       916.980	     1.55798e+06	
       917.080	     1.44079e+06	
       917.180	     1.27027e+06	
       917.182	     1.26699e+06	
       917.280	     1.10328e+06	
       917.378	     1.03228e+06	
       917.575	     1.29588e+06	
       917.771	     1.68677e+06	
       917.967	     1.86723e+06	
       918.163	     1.71826e+06	
       918.359	     1.31042e+06	
       918.510	     1.00246e+06	
       918.556	     9.48877e+05	
       918.602	     9.29933e+05	
       918.694	     1.00581e+06	
       918.878	     1.42646e+06	
       919.062	     1.88640e+06	
       919.201	     2.14040e+06	
       919.241	     2.19052e+06	
       919.246	     2.19589e+06	
       919.251	     2.20109e+06	
       919.301	     2.24273e+06	
       919.402	     2.27182e+06	
       919.502	     2.24028e+06	
       919.602	     2.13310e+06	
       919.702	     1.95206e+06	
       919.802	     1.73581e+06	
       919.902	     1.47600e+06	
       920.002	     1.21310e+06	
       920.102	     9.80632e+05	
       920.165	     8.89671e+05	
       920.189	     8.72753e+05	
       920.202	     8.68578e+05	
       920.215	     8.67146e+05	
       920.265	     8.90748e+05	
       920.366	     1.06454e+06	
       920.466	     1.32035e+06	
       920.566	     1.60079e+06	
       920.666	     1.88699e+06	
       920.766	     2.14921e+06	
       920.866	     2.39344e+06	
       920.966	     2.58393e+06	
       921.066	     2.72993e+06	
       921.166	     2.82744e+06	
       921.266	     2.87113e+06	
       921.367	     2.86932e+06	
       921.467	     2.81797e+06	
       921.567	     2.70863e+06	
       921.667	     2.55124e+06	
       921.767	     2.35143e+06	
       921.867	     2.10300e+06	
       921.967	     1.84299e+06	
       922.067	     1.55784e+06	
       922.167	     1.26720e+06	
       922.267	     1.00746e+06	
       922.331	     8.86036e+05	
       922.368	     8.51315e+05	
       922.405	     8.41538e+05	
       922.479	     8.87563e+05	
       922.627	     1.23373e+06	
       922.740	     1.56831e+06	
       922.775	     1.67258e+06	
       922.810	     1.78060e+06	
       922.880	     1.98173e+06	
       923.020	     2.39267e+06	
       923.160	     2.76079e+06	
       923.301	     3.08964e+06	
       923.441	     3.34806e+06	
       923.581	     3.54193e+06	
       923.721	     3.67076e+06	
       923.861	     3.73953e+06	
       924.001	     3.75266e+06	
       924.141	     3.70538e+06	
       924.282	     3.59163e+06	
       924.422	     3.40841e+06	
       924.562	     3.16123e+06	
       924.702	     2.84486e+06	
       924.842	     2.49380e+06	
       924.982	     2.08886e+06	
       925.122	     1.67432e+06	
       925.262	     1.24451e+06	
       925.322	     1.07153e+06	
       925.403	     8.94584e+05	
       925.484	     8.47332e+05	
       925.646	     1.07549e+06	
       925.808	     1.57191e+06	
       925.970	     2.07423e+06	
       926.132	     2.56932e+06	
       926.220	     2.82029e+06	
       926.295	     3.02254e+06	
       926.369	     3.22629e+06	
       926.517	     3.59229e+06	
       926.665	     3.91829e+06	
       926.813	     4.20109e+06	
       926.961	     4.43706e+06	
       927.109	     4.62662e+06	
       927.257	     4.77557e+06	
       927.406	     4.88690e+06	
       927.554	     4.96155e+06	
       927.702	     5.00368e+06	
       927.850	     5.01301e+06	
       927.998	     4.98778e+06	
       928.038	     4.97368e+06	
       928.110	     4.93588e+06	
       928.146	     4.91282e+06	
       928.182	     4.88681e+06	
       928.327	     4.75241e+06	
       928.471	     4.57862e+06	
       928.615	     4.35400e+06	
       928.759	     4.08017e+06	
       928.903	     3.79401e+06	
       929.005	     3.57353e+06	
       929.047	     3.47737e+06	
       929.085	     3.38689e+06	
       929.089	     3.37712e+06	
       929.173	     3.16066e+06	
       929.261	     2.92451e+06	
       929.333	     2.72649e+06	
       929.438	     2.41808e+06	
       929.543	     2.09489e+06	
       929.648	     1.76053e+06	
       929.705	     1.57392e+06	
       929.737	     1.47191e+06	
       929.753	     1.42000e+06	
       929.769	     1.36706e+06	
       929.783	     1.32104e+06	
       929.827	     1.17692e+06	
       929.833	     1.15776e+06	
       929.883	     1.01293e+06	
       929.910	     9.50435e+05	
       929.939	     9.05357e+05	
       929.954	     8.93595e+05	
       929.968	     8.87179e+05	
       929.982	     8.84588e+05	
       929.996	     8.83639e+05	
       930.010	     8.83454e+05	
       930.024	     8.83922e+05	
       930.038	     8.85153e+05	
       930.052	     8.88031e+05	
       930.081	     9.06821e+05	
       930.137	     1.01583e+06	
       930.201	     1.20801e+06	
       930.247	     1.36083e+06	
       930.249	     1.36757e+06	
       930.251	     1.37433e+06	
       930.301	     1.53929e+06	
       930.326	     1.61694e+06	
       930.402	     1.87031e+06	
       930.478	     2.11687e+06	
       930.630	     2.59731e+06	
       930.633	     2.60656e+06	
       930.782	     3.04513e+06	
       930.931	     3.46643e+06	
       931.080	     3.84336e+06	
       931.229	     4.20446e+06	
       931.379	     4.56593e+06	
       931.516	     4.87478e+06	
       931.528	     4.90066e+06	
       931.677	     5.20285e+06	
       931.838	     5.50784e+06	
       931.999	     5.77833e+06	
       932.160	     6.00050e+06	
       932.321	     6.19726e+06	
       932.483	     6.36867e+06	
       932.644	     6.51758e+06	
       932.805	     6.63680e+06	
       932.966	     6.72989e+06	
       933.127	     6.80585e+06	
       933.173	     6.82439e+06	
       933.265	     6.85715e+06	
       933.288	     6.86444e+06	
       933.403	     6.89504e+06	
       933.432	     6.90041e+06	
       933.542	     6.91509e+06	
       933.652	     6.91939e+06	
       933.762	     6.91229e+06	
       933.872	     6.89369e+06	
       933.982	     6.86092e+06	
       934.092	     6.81232e+06	
       934.202	     6.74911e+06	
       934.312	     6.67080e+06	
       934.413	     6.58880e+06	
       934.422	     6.58148e+06	
       934.533	     6.48396e+06	
       934.652	     6.36081e+06	
       934.771	     6.22013e+06	
       934.890	     6.06626e+06	
       935.009	     5.89225e+06	
       935.026	     5.86573e+06	
       935.128	     5.70563e+06	
       935.230	     5.54554e+06	
       935.332	     5.37451e+06	
       935.434	     5.19692e+06	
       935.537	     5.01040e+06	
       935.639	     4.81103e+06	
       935.741	     4.60221e+06	
       935.843	     4.38035e+06	
       935.945	     4.14128e+06	
       935.950	     4.12918e+06	
       936.047	     3.89042e+06	
       936.144	     3.63859e+06	
       936.338	     3.09311e+06	
       936.464	     2.71161e+06	
       936.532	     2.49342e+06	
       936.601	     2.26795e+06	
       936.645	     2.11954e+06	
       936.714	     1.88199e+06	
       936.737	     1.80227e+06	
       936.829	     1.48565e+06	
       936.887	     1.27500e+06	
       936.944	     1.08645e+06	
       936.973	     1.01168e+06	
       937.001	     9.67124e+05	
       937.015	     9.58880e+05	
       937.029	     9.55484e+05	
       937.043	     9.54812e+05	
       937.058	     9.54702e+05	
       937.072	     9.54809e+05	
       937.086	     9.55000e+05	
       937.101	     9.55434e+05	
       937.115	     9.56404e+05	
       937.143	     9.68663e+05	
       937.150	     9.77104e+05	
       937.186	     1.05065e+06	
       937.199	     1.08664e+06	
       937.250	     1.25493e+06	
       937.314	     1.48983e+06	
       937.341	     1.58472e+06	
       937.442	     1.93842e+06	
       937.543	     2.29011e+06	
       937.645	     2.63136e+06	
       937.746	     2.95456e+06	
       937.847	     3.26276e+06	
       937.896	     3.40882e+06	
       937.948	     3.56153e+06	
       938.000	     3.71075e+06	
       938.104	     3.99598e+06	
       938.208	     4.26883e+06	
       938.312	     4.53128e+06	
       938.416	     4.77808e+06	
       938.520	     5.01492e+06	
       938.543	     5.06654e+06	
       938.556	     5.09573e+06	
       938.624	     5.24479e+06	
       938.729	     5.46533e+06	
       938.914	     5.84961e+06	
       939.093	     6.21087e+06	
       939.271	     6.57573e+06	
       939.449	     6.91823e+06	
       939.628	     7.24699e+06	
       939.807	     7.56376e+06	
       939.986	     7.88241e+06	
       940.164	     8.18064e+06	
       940.343	     8.45192e+06	
       940.521	     8.70325e+06	
       940.580	     8.78188e+06	
       940.660	     8.88634e+06	
       940.700	     8.93733e+06	
       940.740	     8.98706e+06	
       940.901	     9.16255e+06	
       941.061	     9.32575e+06	
       941.221	     9.47740e+06	
       941.381	     9.61560e+06	
       941.541	     9.73501e+06	
       941.701	     9.84629e+06	
       942.022	     1.00457e+07	
       942.342	     1.02116e+07	
       942.662	     1.03376e+07	
       942.917	     1.04104e+07	
       942.982	     1.04250e+07	
       943.048	     1.04378e+07	
       943.178	     1.04583e+07	
       943.438	     1.04627e+07	
       943.698	     1.04261e+07	
       943.828	     1.03920e+07	
       943.958	     1.03467e+07	
       944.088	     1.02885e+07	
       944.219	     1.02156e+07	
       944.349	     1.01298e+07	
       944.479	     1.00309e+07	
       944.609	     9.91854e+06	
       944.691	     9.84063e+06	
       944.739	     9.79244e+06	
       944.845	     9.68911e+06	
       944.999	     9.52682e+06	
       945.153	     9.34819e+06	
       945.308	     9.15388e+06	
       945.462	     8.95480e+06	
       945.616	     8.74469e+06	
       945.770	     8.51915e+06	
       945.924	     8.28275e+06	
       946.232	     7.79910e+06	
       946.541	     7.30178e+06	
       946.695	     7.04515e+06	
       946.849	     6.78160e+06	
       947.004	     6.50530e+06	
       947.158	     6.21586e+06	
       947.312	     5.91267e+06	
       947.468	     5.59200e+06	
       947.471	     5.58556e+06	
       947.622	     5.25042e+06	
       947.624	     5.24699e+06	
       947.777	     4.88725e+06	
       947.930	     4.49285e+06	
       948.083	     4.06855e+06	
       948.233	     3.61487e+06	
       948.236	     3.60567e+06	
       948.389	     3.11171e+06	
       948.546	     2.56136e+06	
       948.627	     2.25944e+06	
       948.661	     2.13128e+06	
       948.702	     1.97576e+06	
       948.777	     1.69159e+06	
       948.835	     1.45521e+06	
       948.893	     1.23262e+06	
       948.922	     1.14420e+06	
       948.951	     1.09470e+06	
       948.966	     1.08940e+06	
       948.980	     1.08860e+06	
       948.994	     1.08870e+06	
       949.009	     1.08887e+06	
       949.023	     1.08903e+06	
       949.037	     1.08920e+06	
       949.052	     1.08938e+06	
       949.066	     1.08962e+06	
       949.095	     1.09641e+06	
       949.153	     1.23606e+06	
       949.230	     1.53983e+06	
       949.258	     1.65750e+06	
       949.269	     1.70023e+06	
       949.280	     1.74280e+06	
       949.330	     1.93446e+06	
       949.360	     2.05058e+06	
       949.430	     2.31972e+06	
       949.500	     2.58567e+06	
       949.640	     3.09424e+06	
       949.781	     3.56706e+06	
       949.795	     3.61223e+06	
       949.879	     3.88103e+06	
       949.921	     4.01207e+06	
       949.963	     4.14134e+06	
       950.131	     4.62772e+06	
       950.299	     5.07923e+06	
       950.467	     5.49427e+06	
       950.635	     5.88744e+06	
       950.719	     6.07571e+06	
       950.804	     6.25931e+06	
       950.888	     6.43942e+06	
       951.056	     6.78983e+06	
       951.224	     7.12790e+06	
       951.392	     7.45745e+06	
       951.728	     8.10606e+06	
       952.065	     8.78191e+06	
       952.401	     9.46534e+06	
       952.738	     1.01404e+07	
       953.413	     1.15452e+07	
       953.750	     1.22637e+07	
       954.087	     1.29592e+07	
       954.425	     1.36105e+07	
       954.593	     1.39273e+07	
       954.762	     1.42374e+07	
       954.930	     1.45186e+07	
       955.099	     1.47801e+07	
       955.267	     1.50339e+07	
       955.437	     1.52822e+07	
       955.534	     1.54228e+07	
       955.774	     1.57617e+07	
       956.014	     1.60763e+07	
       956.494	     1.67299e+07	
       956.975	     1.73356e+07	
       957.455	     1.79000e+07	
       957.543	     1.79974e+07	
       957.936	     1.84114e+07	
       957.980	     1.84558e+07	
       958.416	     1.88753e+07	
       958.852	     1.92542e+07	
       959.289	     1.95848e+07	
       959.725	     1.98690e+07	
       959.893	     1.99649e+07	
       960.162	     2.01016e+07	
       960.430	     2.02155e+07	
       960.698	     2.03266e+07	
       960.966	     2.04116e+07	
       961.234	     2.04696e+07	
       961.503	     2.05000e+07	
       961.771	     2.05005e+07	
       962.039	     2.04718e+07	
       962.307	     2.04110e+07	
       962.576	     2.03185e+07	
       962.844	     2.01932e+07	
       963.112	     2.00321e+07	
       963.380	     1.98426e+07	
       963.648	     1.96191e+07	
       963.917	     1.93668e+07	
       964.047	     1.92342e+07	
       964.139	     1.91339e+07	
       964.185	     1.90820e+07	
       964.231	     1.90293e+07	
       964.415	     1.88168e+07	
       964.783	     1.83494e+07	
       965.152	     1.78272e+07	
       965.520	     1.72627e+07	
       965.888	     1.66613e+07	
       966.257	     1.60320e+07	
       966.625	     1.53812e+07	
       966.993	     1.47088e+07	
       967.428	     1.39066e+07	
       967.730	     1.33379e+07	
       968.032	     1.27646e+07	
       968.334	     1.21752e+07	
       968.637	     1.15787e+07	
       968.939	     1.09661e+07	
       969.185	     1.04532e+07	
       969.241	     1.03344e+07	
       969.297	     1.02144e+07	
       969.339	     1.01225e+07	
       969.409	     9.97072e+06	
       969.633	     9.46901e+06	
       969.779	     9.12658e+06	
       969.927	     8.77180e+06	
       970.074	     8.40197e+06	
       970.220	     8.01486e+06	
       970.367	     7.60680e+06	
       970.514	     7.17599e+06	
       970.660	     6.71321e+06	
       970.740	     6.44444e+06	
       970.807	     6.21005e+06	
       970.874	     5.96658e+06	
       971.008	     5.44802e+06	
       971.144	     4.87814e+06	
       971.209	     4.58082e+06	
       971.278	     4.24304e+06	
       971.348	     3.88241e+06	
       971.389	     3.65832e+06	
       971.467	     3.21878e+06	
       971.487	     3.10041e+06	
       971.585	     2.51282e+06	
       971.644	     2.15463e+06	
       971.703	     1.80501e+06	
       971.732	     1.64426e+06	
       971.762	     1.49829e+06	
       971.778	     1.43718e+06	
       971.792	     1.40079e+06	
       971.806	     1.38568e+06	
       971.821	     1.38449e+06	
       971.827	     1.38457e+06	
       971.833	     1.38466e+06	
       971.836	     1.38470e+06	
       971.839	     1.38474e+06	
       971.851	     1.38491e+06	
       971.866	     1.38528e+06	
       971.880	     1.39284e+06	
       971.910	     1.47581e+06	
       971.969	     1.77509e+06	
       972.037	     2.18076e+06	
       972.087	     2.48720e+06	
       972.137	     2.79365e+06	
       972.150	     2.87272e+06	
       972.237	     3.38899e+06	
       972.324	     3.87553e+06	
       972.499	     4.74186e+06	
       972.548	     4.96164e+06	
       972.673	     5.48038e+06	
       972.798	     5.95018e+06	
       972.923	     6.37816e+06	
       973.048	     6.77026e+06	
       973.173	     7.13412e+06	
       973.298	     7.47061e+06	
       973.351	     7.60869e+06	
       973.423	     7.79137e+06	
       973.548	     8.09632e+06	
       973.746	     8.55025e+06	
       973.943	     8.98093e+06	
       974.140	     9.38331e+06	
       974.337	     9.77412e+06	
       974.731	     1.05293e+07	
       975.126	     1.12405e+07	
       975.400	     1.17209e+07	
       975.520	     1.19150e+07	
       975.640	     1.21099e+07	
       975.880	     1.25051e+07	
       976.361	     1.32818e+07	
       976.601	     1.36863e+07	
       976.841	     1.41165e+07	
       977.081	     1.45793e+07	
       977.321	     1.50776e+07	
       977.802	     1.60143e+07	
       978.042	     1.65225e+07	
       978.282	     1.70202e+07	
       978.522	     1.75614e+07	
       978.762	     1.81594e+07	
       978.883	     1.84867e+07	
       979.003	     1.88370e+07	
       979.123	     1.92102e+07	
       979.181	     1.93999e+07	
       979.243	     1.96099e+07	
       979.305	     1.98283e+07	
       979.429	     2.02183e+07	
       979.553	     2.06296e+07	
       979.801	     2.15279e+07	
       979.925	     2.20262e+07	
       980.049	     2.24605e+07	
       980.173	     2.28418e+07	
       980.298	     2.32377e+07	
       980.422	     2.36492e+07	
       980.546	     2.40767e+07	
       980.794	     2.48574e+07	
       981.042	     2.55670e+07	
       981.290	     2.62961e+07	
       981.787	     2.76943e+07	
       982.283	     2.90791e+07	
       982.628	     3.00224e+07	
       982.952	     3.09085e+07	
       983.276	     3.18102e+07	
       983.599	     3.27602e+07	
       983.923	     3.37596e+07	
       984.571	     3.56690e+07	
       985.113	     3.71569e+07	
       985.218	     3.74387e+07	
       985.866	     3.92174e+07	
       986.242	     4.02451e+07	
       986.430	     4.07468e+07	
       986.618	     4.12538e+07	
       986.806	     4.17295e+07	
       986.995	     4.20512e+07	
       987.183	     4.23641e+07	
       987.371	     4.26697e+07	
       987.559	     4.29610e+07	
       987.747	     4.32355e+07	
       987.935	     4.35013e+07	
       988.123	     4.37583e+07	
       988.312	     4.41849e+07	
       988.440	     4.44755e+07	
       988.500	     4.46119e+07	
       988.658	     4.49694e+07	
