# Koester WD models
# teff = 16750 K (value for the effective temperature for the model. Temperatures are given in K)
# logg = 8.25 log(cm/s2) (value for Log(G) for the model.)
#
#   WAVELENGTH	#           FLUX	
#   (ANGSTROM)	#  (ERG/CM2/S/A)	
##############	################	
       899.230	     1.07933e+06	
       901.472	     1.10492e+06	
       904.235	     1.13709e+06	
       908.450	     1.18750e+06	
       909.241	     1.19713e+06	
       910.032	     1.20681e+06	
       911.193	     1.22124e+06	
       911.613	     1.22644e+06	
       911.824	     1.22902e+06	
       911.929	     1.23030e+06	
       912.034	     1.23157e+06	
       912.139	     1.26101e+06	
       912.244	     1.29065e+06	
       912.349	     1.32036e+06	
       912.454	     1.35010e+06	
       912.559	     1.37978e+06	
       912.664	     1.40926e+06	
       912.770	     1.43824e+06	
       912.875	     1.46596e+06	
       912.886	     1.46876e+06	
       912.980	     1.49079e+06	
       913.085	     1.50672e+06	
       913.284	     1.50737e+06	
       913.433	     1.50021e+06	
       913.483	     1.49329e+06	
       913.533	     1.49374e+06	
       913.633	     1.50713e+06	
       913.645	     1.50589e+06	
       913.734	     1.47502e+06	
       913.822	     1.44523e+06	
       913.831	     1.44655e+06	
       913.998	     1.50023e+06	
       914.165	     1.33930e+06	
       914.332	     1.52631e+06	
       914.423	     1.46730e+06	
       914.499	     1.28957e+06	
       914.575	     1.19689e+06	
       914.728	     1.50450e+06	
       914.880	     1.52500e+06	
       914.982	     1.21904e+06	
       915.032	     1.08692e+06	
       915.082	     1.05518e+06	
       915.182	     1.30717e+06	
       915.282	     1.63431e+06	
       915.382	     1.72180e+06	
       915.482	     1.52946e+06	
       915.522	     1.38614e+06	
       915.583	     1.14518e+06	
       915.593	     1.10290e+06	
       915.643	     9.61773e+05	
       915.693	     9.39760e+05	
       915.793	     1.24355e+06	
       915.893	     1.66712e+06	
       915.993	     1.91380e+06	
       916.093	     1.92524e+06	
       916.193	     1.69560e+06	
       916.293	     1.27460e+06	
       916.343	     1.04103e+06	
       916.393	     8.80862e+05	
       916.443	     8.51095e+05	
       916.544	     1.17393e+06	
       916.644	     1.66837e+06	
       916.744	     2.04605e+06	
       916.844	     2.25362e+06	
       916.944	     2.27008e+06	
       917.044	     2.09037e+06	
       917.144	     1.72897e+06	
       917.244	     1.23462e+06	
       917.294	     9.76969e+05	
       917.344	     8.14803e+05	
       917.394	     7.92357e+05	
       917.495	     1.14061e+06	
       917.595	     1.68095e+06	
       917.695	     2.13532e+06	
       917.795	     2.48095e+06	
       917.895	     2.69260e+06	
       917.995	     2.75876e+06	
       918.095	     2.67945e+06	
       918.195	     2.43920e+06	
       918.295	     2.08718e+06	
       918.395	     1.62430e+06	
       918.496	     1.05317e+06	
       918.546	     8.28359e+05	
       918.596	     7.50922e+05	
       918.646	     7.95784e+05	
       918.746	     1.28261e+06	
       918.846	     1.83203e+06	
       918.946	     2.30052e+06	
       919.046	     2.71261e+06	
       919.146	     3.04421e+06	
       919.196	     3.16638e+06	
       919.246	     3.26496e+06	
       919.296	     3.33408e+06	
       919.397	     3.39104e+06	
       919.497	     3.35481e+06	
       919.597	     3.21039e+06	
       919.697	     2.96543e+06	
       919.797	     2.62178e+06	
       919.897	     2.20909e+06	
       919.997	     1.71822e+06	
       920.097	     1.11516e+06	
       920.147	     8.46521e+05	
       920.197	     7.40652e+05	
       920.247	     7.52468e+05	
       920.347	     1.20932e+06	
       920.448	     1.80152e+06	
       920.548	     2.30116e+06	
       920.648	     2.74450e+06	
       920.748	     3.14263e+06	
       920.848	     3.47985e+06	
       920.948	     3.75021e+06	
       921.048	     3.94631e+06	
       921.148	     4.08008e+06	
       921.248	     4.14609e+06	
       921.349	     4.15824e+06	
       921.449	     4.10930e+06	
       921.549	     3.99504e+06	
       921.649	     3.81223e+06	
       921.749	     3.55770e+06	
       921.849	     3.24263e+06	
       921.949	     2.87732e+06	
       922.049	     2.44490e+06	
       922.149	     1.95661e+06	
       922.249	     1.37690e+06	
       922.294	     1.06854e+06	
       922.350	     7.90406e+05	
       922.405	     7.39518e+05	
       922.515	     1.07121e+06	
       922.625	     1.77995e+06	
       922.660	     1.96875e+06	
       922.735	     2.35192e+06	
       922.810	     2.70355e+06	
       922.960	     3.32629e+06	
       923.110	     3.87208e+06	
       923.260	     4.32311e+06	
       923.411	     4.67705e+06	
       923.561	     4.93183e+06	
       923.711	     5.09972e+06	
       923.861	     5.19283e+06	
       924.011	     5.21432e+06	
       924.161	     5.15312e+06	
       924.312	     5.00295e+06	
       924.462	     4.75028e+06	
       924.612	     4.39889e+06	
       924.762	     3.97421e+06	
       924.912	     3.45267e+06	
       925.062	     2.85144e+06	
       925.212	     2.11663e+06	
       925.241	     1.94981e+06	
       925.363	     1.17052e+06	
       925.484	     7.59722e+05	
       925.605	     1.17368e+06	
       925.726	     1.96005e+06	
       925.847	     2.60272e+06	
       925.968	     3.15504e+06	
       926.089	     3.64001e+06	
       926.210	     4.08731e+06	
       926.282	     4.32443e+06	
       926.332	     4.48638e+06	
       926.382	     4.63979e+06	
       926.482	     4.94634e+06	
       926.682	     5.47127e+06	
       926.882	     5.88046e+06	
       927.082	     6.17778e+06	
       927.283	     6.39565e+06	
       927.483	     6.54790e+06	
       927.683	     6.62970e+06	
       927.883	     6.64818e+06	
       927.984	     6.63215e+06	
       928.083	     6.58896e+06	
       928.182	     6.51481e+06	
       928.381	     6.28601e+06	
       928.579	     5.94660e+06	
       928.777	     5.53794e+06	
       928.861	     5.35855e+06	
       928.975	     5.08869e+06	
       929.089	     4.78703e+06	
       929.145	     4.62464e+06	
       929.203	     4.44545e+06	
       929.261	     4.25849e+06	
       929.378	     3.85049e+06	
       929.444	     3.59706e+06	
       929.494	     3.39886e+06	
       929.544	     3.18752e+06	
       929.644	     2.72538e+06	
       929.694	     2.47102e+06	
       929.705	     2.41287e+06	
       929.744	     2.19743e+06	
       929.794	     1.88852e+06	
       929.827	     1.67033e+06	
       929.883	     1.26970e+06	
       929.889	     1.22280e+06	
       929.939	     8.73309e+05	
       929.989	     7.98756e+05	
       930.039	     8.00032e+05	
       930.089	     9.11360e+05	
       930.139	     1.28773e+06	
       930.189	     1.64855e+06	
       930.239	     1.98010e+06	
       930.289	     2.28391e+06	
       930.301	     2.35095e+06	
       930.390	     2.81132e+06	
       930.478	     3.22299e+06	
       930.654	     3.94663e+06	
       930.729	     4.22613e+06	
       930.830	     4.57538e+06	
       930.931	     4.90107e+06	
       931.032	     5.20132e+06	
       931.133	     5.48258e+06	
       931.234	     5.74748e+06	
       931.237	     5.75511e+06	
       931.335	     6.02338e+06	
       931.388	     6.16500e+06	
       931.538	     6.56747e+06	
       931.688	     6.94810e+06	
       931.838	     7.29412e+06	
       931.988	     7.60300e+06	
       932.138	     7.83878e+06	
       932.288	     8.05030e+06	
       932.439	     8.23411e+06	
       932.589	     8.39833e+06	
       932.739	     8.54246e+06	
       932.889	     8.65989e+06	
       933.039	     8.75882e+06	
       933.189	     8.83984e+06	
       933.275	     8.87802e+06	
       933.339	     8.90227e+06	
       933.403	     8.92285e+06	
       933.482	     8.94122e+06	
       933.512	     8.94675e+06	
       933.532	     8.94993e+06	
       933.582	     8.95621e+06	
       933.652	     8.96080e+06	
       933.792	     8.95505e+06	
       933.932	     8.92759e+06	
       934.072	     8.85543e+06	
       934.212	     8.75358e+06	
       934.352	     8.62116e+06	
       934.493	     8.46581e+06	
       934.583	     8.35035e+06	
       934.633	     8.28052e+06	
       934.683	     8.20653e+06	
       934.783	     8.04744e+06	
       934.983	     7.68889e+06	
       935.133	     7.40106e+06	
       935.183	     7.31495e+06	
       935.233	     7.22595e+06	
       935.333	     7.04056e+06	
       935.534	     6.63756e+06	
       935.734	     6.19205e+06	
       935.934	     5.69093e+06	
       936.084	     5.26839e+06	
       936.134	     5.11825e+06	
       936.184	     4.96645e+06	
       936.284	     4.64673e+06	
       936.384	     4.30423e+06	
       936.484	     3.92360e+06	
       936.534	     3.71848e+06	
       936.585	     3.50024e+06	
       936.635	     3.27037e+06	
       936.641	     3.24178e+06	
       936.714	     2.87672e+06	
       936.735	     2.76613e+06	
       936.829	     2.21853e+06	
       936.887	     1.81975e+06	
       936.944	     1.37552e+06	
       936.951	     1.31449e+06	
       937.001	     9.19576e+05	
       937.051	     8.64968e+05	
       937.101	     8.65578e+05	
       937.151	     9.58359e+05	
       937.201	     1.38715e+06	
       937.251	     1.78154e+06	
       937.301	     2.13623e+06	
       937.351	     2.45628e+06	
       937.359	     2.50304e+06	
       937.451	     3.00804e+06	
       937.543	     3.45962e+06	
       937.728	     4.24005e+06	
       937.824	     4.59298e+06	
       937.912	     4.89485e+06	
       938.000	     5.17980e+06	
       938.176	     5.72194e+06	
       938.352	     6.21536e+06	
       938.528	     6.66505e+06	
       938.705	     7.09626e+06	
       938.831	     7.39088e+06	
       938.881	     7.50570e+06	
       938.931	     7.61934e+06	
       939.031	     7.84327e+06	
       939.181	     8.23631e+06	
       939.231	     8.36895e+06	
       939.281	     8.50021e+06	
       939.381	     8.75863e+06	
       939.581	     9.26528e+06	
       939.782	     9.74861e+06	
       939.982	     1.02361e+07	
       940.024	     1.03359e+07	
       940.182	     1.07019e+07	
       940.203	     1.07495e+07	
       940.382	     1.11036e+07	
       940.561	     1.14428e+07	
       940.690	     1.16784e+07	
       940.740	     1.17674e+07	
       940.790	     1.18523e+07	
       940.891	     1.20188e+07	
       941.091	     1.23368e+07	
       941.291	     1.26334e+07	
       941.491	     1.28829e+07	
       941.691	     1.31033e+07	
       941.891	     1.33034e+07	
       942.092	     1.34841e+07	
       942.292	     1.36425e+07	
       942.337	     1.36729e+07	
       942.492	     1.37672e+07	
       942.515	     1.37796e+07	
       942.692	     1.38644e+07	
       942.870	     1.39260e+07	
       943.048	     1.39630e+07	
       943.225	     1.39795e+07	
       943.403	     1.39626e+07	
       943.580	     1.39147e+07	
       943.758	     1.38350e+07	
       943.935	     1.37232e+07	
       944.114	     1.35698e+07	
       944.291	     1.33665e+07	
       944.469	     1.31267e+07	
       944.646	     1.28526e+07	
       944.824	     1.25617e+07	
       945.051	     1.21755e+07	
       945.179	     1.19386e+07	
       945.308	     1.16894e+07	
       945.436	     1.14323e+07	
       945.692	     1.08865e+07	
       945.820	     1.05986e+07	
       945.948	     1.03328e+07	
       946.076	     1.00899e+07	
       946.204	     9.84446e+06	
       946.275	     9.70736e+06	
       946.333	     9.59741e+06	
       946.461	     9.35987e+06	
       946.717	     8.86856e+06	
       946.938	     8.43697e+06	
       947.158	     7.98747e+06	
       947.268	     7.75530e+06	
       947.378	     7.51519e+06	
       947.490	     7.26619e+06	
       947.600	     7.00456e+06	
       947.710	     6.72863e+06	
       947.820	     6.43496e+06	
       947.931	     6.11841e+06	
       947.991	     5.93670e+06	
       948.041	     5.78081e+06	
       948.091	     5.61934e+06	
       948.191	     5.28428e+06	
       948.291	     4.92432e+06	
       948.391	     4.52757e+06	
       948.437	     4.33175e+06	
       948.491	     4.08988e+06	
       948.546	     3.83054e+06	
       948.654	     3.26330e+06	
       948.712	     2.92700e+06	
       948.731	     2.80972e+06	
       948.762	     2.61006e+06	
       948.812	     2.24737e+06	
       948.835	     2.06841e+06	
       948.893	     1.56170e+06	
       948.901	     1.48359e+06	
       948.951	     1.02250e+06	
       949.001	     9.87824e+05	
       949.049	     9.88345e+05	
       949.051	     9.88367e+05	
       949.101	     1.04792e+06	
       949.153	     1.56595e+06	
       949.207	     2.04316e+06	
       949.257	     2.43039e+06	
       949.307	     2.77524e+06	
       949.314	     2.81952e+06	
       949.407	     3.37171e+06	
       949.500	     3.86535e+06	
       949.687	     4.71666e+06	
       949.783	     5.09827e+06	
       949.873	     5.43021e+06	
       949.963	     5.74283e+06	
       950.143	     6.32660e+06	
       950.323	     6.85335e+06	
       950.503	     7.33267e+06	
       950.683	     7.77796e+06	
       950.814	     8.08596e+06	
       950.864	     8.20176e+06	
       950.914	     8.31671e+06	
       951.014	     8.54369e+06	
       951.214	     8.99287e+06	
       951.614	     9.87685e+06	
       951.814	     1.03263e+07	
       952.015	     1.07947e+07	
       952.092	     1.09774e+07	
       952.215	     1.12963e+07	
       952.415	     1.18762e+07	
       952.738	     1.28193e+07	
       953.061	     1.37870e+07	
       953.223	     1.42784e+07	
       953.385	     1.48072e+07	
       953.546	     1.53694e+07	
       953.708	     1.59422e+07	
       953.869	     1.65236e+07	
       953.988	     1.69563e+07	
       954.031	     1.71085e+07	
       954.355	     1.82492e+07	
       954.495	     1.87517e+07	
       954.748	     1.96678e+07	
       955.001	     2.05418e+07	
       955.254	     2.13812e+07	
       955.508	     2.22070e+07	
       955.761	     2.30118e+07	
       956.014	     2.37123e+07	
       956.520	     2.51623e+07	
       957.027	     2.65438e+07	
       957.533	     2.78447e+07	
       957.804	     2.84929e+07	
       958.040	     2.90286e+07	
       958.175	     2.93229e+07	
       958.546	     3.00885e+07	
       958.918	     3.07722e+07	
       959.289	     3.13615e+07	
       959.633	     3.17920e+07	
       959.660	     3.18218e+07	
       960.031	     3.21803e+07	
       960.430	     3.24369e+07	
       960.629	     3.25764e+07	
       960.828	     3.26751e+07	
       961.027	     3.27285e+07	
       961.226	     3.27392e+07	
       961.426	     3.27068e+07	
       961.625	     3.26261e+07	
       961.824	     3.25007e+07	
       962.023	     3.23317e+07	
       962.222	     3.21165e+07	
       962.421	     3.18557e+07	
       962.621	     3.15545e+07	
       962.820	     3.12097e+07	
       963.019	     3.08176e+07	
       963.417	     2.99304e+07	
       963.816	     2.89116e+07	
       964.164	     2.79345e+07	
       964.214	     2.77855e+07	
       964.264	     2.76356e+07	
       964.364	     2.73330e+07	
       964.564	     2.67171e+07	
       964.965	     2.54427e+07	
       965.365	     2.41401e+07	
       965.765	     2.28097e+07	
       966.166	     2.15040e+07	
       966.566	     2.02304e+07	
       966.701	     1.98109e+07	
       966.966	     1.89866e+07	
       967.034	     1.87817e+07	
       967.366	     1.77989e+07	
       967.700	     1.68431e+07	
       968.032	     1.59253e+07	
       968.098	     1.57432e+07	
       968.364	     1.50232e+07	
       968.668	     1.42262e+07	
       968.698	     1.41475e+07	
       969.297	     1.25919e+07	
       969.611	     1.17691e+07	
       969.927	     1.09277e+07	
       970.084	     1.04917e+07	
       970.242	     1.00395e+07	
       970.399	     9.56722e+06	
       970.556	     9.06871e+06	
       970.713	     8.52757e+06	
       970.821	     8.12931e+06	
       970.870	     7.93573e+06	
       970.920	     7.73463e+06	
       971.020	     7.30844e+06	
       971.120	     6.84496e+06	
       971.222	     6.32921e+06	
       971.272	     6.04904e+06	
       971.322	     5.74798e+06	
       971.371	     5.42594e+06	
       971.472	     4.70724e+06	
       971.522	     4.30602e+06	
       971.540	     4.14731e+06	
       971.572	     3.86815e+06	
       971.621	     3.39025e+06	
       971.644	     3.16123e+06	
       971.703	     2.50884e+06	
       971.712	     2.40273e+06	
       971.762	     1.79928e+06	
       971.812	     1.28575e+06	
       971.855	     1.25994e+06	
       971.862	     1.27064e+06	
       971.912	     1.75255e+06	
       971.969	     2.44425e+06	
       972.033	     3.16195e+06	
       972.083	     3.66545e+06	
       972.133	     4.12381e+06	
       972.142	     4.20329e+06	
       972.233	     4.93840e+06	
       972.324	     5.57724e+06	
       972.507	     6.63498e+06	
       972.580	     6.99523e+06	
       972.689	     7.48396e+06	
       972.798	     7.92740e+06	
       972.907	     8.33069e+06	
       973.016	     8.70312e+06	
       973.125	     9.04939e+06	
       973.234	     9.37194e+06	
       973.343	     9.67852e+06	
       973.377	     9.77180e+06	
       973.452	     9.97292e+06	
       973.561	     1.02563e+07	
       973.746	     1.07147e+07	
       973.930	     1.11563e+07	
       974.114	     1.15762e+07	
       974.482	     1.24031e+07	
       974.797	     1.30970e+07	
       974.850	     1.32107e+07	
       975.219	     1.40258e+07	
       975.640	     1.49020e+07	
       976.061	     1.57931e+07	
       976.273	     1.62407e+07	
       976.483	     1.67098e+07	
       976.694	     1.72077e+07	
       976.904	     1.77446e+07	
       977.115	     1.83304e+07	
       977.325	     1.89601e+07	
       977.536	     1.95352e+07	
       977.747	     2.01588e+07	
       977.958	     2.08427e+07	
       978.168	     2.14845e+07	
       978.379	     2.21770e+07	
       978.589	     2.29340e+07	
       978.716	     2.34345e+07	
       978.800	     2.37841e+07	
       978.864	     2.40610e+07	
       979.011	     2.47421e+07	
       979.158	     2.54899e+07	
       979.305	     2.63171e+07	
       979.452	     2.70751e+07	
       979.599	     2.79023e+07	
       979.746	     2.88113e+07	
       979.893	     2.98171e+07	
       980.040	     3.07673e+07	
       980.188	     3.15699e+07	
       980.482	     3.33304e+07	
       981.070	     3.66969e+07	
       981.659	     4.00531e+07	
       981.748	     4.05784e+07	
       982.247	     4.35296e+07	
       982.291	     4.37878e+07	
       982.563	     4.54039e+07	
       982.835	     4.70771e+07	
       983.108	     4.88084e+07	
       983.379	     5.06224e+07	
       983.651	     5.25987e+07	
       983.873	     5.42943e+07	
       983.923	     5.46888e+07	
       983.973	     5.50935e+07	
       984.073	     5.58836e+07	
       984.274	     5.73799e+07	
       984.674	     6.05375e+07	
       985.074	     6.35591e+07	
       985.474	     6.66860e+07	
       985.875	     7.00321e+07	
       985.932	     7.05187e+07	
       986.275	     7.34140e+07	
       986.446	     7.48607e+07	
       986.618	     7.63306e+07	
       986.790	     7.76809e+07	
       986.962	     7.84811e+07	
       987.134	     7.92589e+07	
       987.305	     8.00135e+07	
       987.648	     8.14276e+07	
       987.991	     8.26999e+07	
       988.163	     8.34181e+07	
       988.335	     8.46499e+07	
       988.507	     8.58707e+07	
       988.678	     8.70969e+07	
       988.730	     8.74701e+07	
       988.850	     8.82310e+07	
       989.021	     8.90063e+07	
       989.167	     8.96504e+07	
       989.312	     9.02818e+07	
       989.457	     9.08797e+07	
       989.603	     9.09840e+07	
       989.749	     9.08574e+07	
       989.895	     9.07110e+07	
       990.040	     9.05454e+07	
       990.186	     9.03619e+07	
       990.331	     9.04782e+07	
       990.477	     9.06227e+07	
       990.622	     9.07506e+07	
       990.768	     9.08621e+07	
       990.913	     9.11178e+07	
       991.059	     9.19648e+07	
