# Koester WD models
# teff = 16750 K (value for the effective temperature for the model. Temperatures are given in K)
# logg = 9.5 log(cm/s2) (value for Log(G) for the model.)
#
#   WAVELENGTH	#           FLUX	
#   (ANGSTROM)	#  (ERG/CM2/S/A)	
##############	################	
       899.230	     1.30916e+06	
       904.235	     1.37803e+06	
       908.450	     1.43806e+06	
       909.241	     1.44952e+06	
       910.032	     1.46104e+06	
       911.193	     1.47800e+06	
       911.613	     1.48412e+06	
       911.824	     1.48716e+06	
       911.929	     1.48868e+06	
       912.034	     1.49018e+06	
       912.139	     1.50129e+06	
       912.244	     1.51236e+06	
       912.349	     1.52338e+06	
       912.454	     1.53433e+06	
       912.559	     1.54519e+06	
       912.664	     1.55596e+06	
       912.770	     1.56657e+06	
       912.875	     1.57693e+06	
       912.886	     1.57799e+06	
       913.037	     1.59228e+06	
       913.085	     1.59667e+06	
       913.241	     1.61035e+06	
       913.284	     1.61390e+06	
       913.531	     1.63252e+06	
       913.677	     1.64111e+06	
       913.822	     1.64927e+06	
       913.967	     1.65255e+06	
       914.059	     1.65512e+06	
       914.112	     1.65728e+06	
       914.165	     1.65846e+06	
       914.271	     1.65776e+06	
       914.377	     1.65288e+06	
       914.391	     1.65176e+06	
       914.448	     1.64989e+06	
       914.483	     1.64878e+06	
       914.575	     1.64792e+06	
       914.603	     1.64847e+06	
       914.760	     1.64673e+06	
       914.915	     1.61893e+06	
       915.071	     1.59592e+06	
       915.122	     1.60063e+06	
       915.226	     1.62205e+06	
       915.252	     1.62727e+06	
       915.382	     1.62541e+06	
       915.512	     1.55662e+06	
       915.609	     1.50141e+06	
       915.643	     1.49045e+06	
       915.677	     1.49117e+06	
       915.745	     1.51909e+06	
       915.881	     1.63275e+06	
       916.017	     1.70418e+06	
       916.153	     1.65297e+06	
       916.289	     1.49677e+06	
       916.379	     1.40790e+06	
       916.421	     1.39414e+06	
       916.425	     1.39415e+06	
       916.429	     1.39440e+06	
       916.479	     1.41806e+06	
       916.580	     1.54666e+06	
       916.680	     1.71078e+06	
       916.780	     1.84006e+06	
       916.880	     1.89671e+06	
       916.980	     1.85298e+06	
       917.080	     1.71909e+06	
       917.180	     1.52301e+06	
       917.182	     1.51924e+06	
       917.280	     1.32823e+06	
       917.378	     1.24386e+06	
       917.575	     1.55453e+06	
       917.771	     2.00261e+06	
       917.967	     2.20436e+06	
       918.163	     2.03310e+06	
       918.359	     1.56311e+06	
       918.510	     1.20066e+06	
       918.556	     1.13589e+06	
       918.602	     1.11288e+06	
       918.694	     1.20483e+06	
       918.878	     1.69907e+06	
       919.062	     2.22667e+06	
       919.201	     2.51553e+06	
       919.241	     2.57226e+06	
       919.246	     2.57836e+06	
       919.251	     2.58425e+06	
       919.301	     2.63153e+06	
       919.402	     2.66401e+06	
       919.502	     2.62729e+06	
       919.602	     2.50434e+06	
       919.702	     2.29528e+06	
       919.802	     2.04922e+06	
       919.902	     1.74935e+06	
       920.002	     1.44371e+06	
       920.102	     1.16857e+06	
       920.165	     1.05744e+06	
       920.189	     1.03590e+06	
       920.202	     1.03040e+06	
       920.215	     1.02850e+06	
       920.265	     1.05871e+06	
       920.366	     1.26883e+06	
       920.466	     1.56914e+06	
       920.566	     1.89445e+06	
       920.666	     2.22372e+06	
       920.866	     2.80654e+06	
       921.066	     3.19343e+06	
       921.266	     3.35484e+06	
       921.467	     3.29314e+06	
       921.667	     2.98593e+06	
       921.867	     2.46831e+06	
       922.067	     1.83900e+06	
       922.130	     1.63093e+06	
       922.267	     1.19643e+06	
       922.405	     9.91232e+05	
       922.542	     1.20025e+06	
       922.548	     1.21596e+06	
       922.679	     1.64314e+06	
       922.810	     2.09720e+06	
       922.941	     2.53434e+06	
       923.072	     2.96926e+06	
       923.203	     3.34620e+06	
       923.335	     3.68980e+06	
       923.466	     3.94977e+06	
       923.597	     4.15155e+06	
       923.728	     4.28498e+06	
       923.859	     4.35777e+06	
       923.990	     4.37442e+06	
       924.121	     4.33078e+06	
       924.252	     4.22004e+06	
       924.384	     4.03852e+06	
       924.515	     3.79574e+06	
       924.646	     3.47878e+06	
       924.777	     3.11413e+06	
       924.908	     2.70129e+06	
       925.039	     2.26139e+06	
       925.170	     1.79852e+06	
       925.302	     1.33964e+06	
       925.382	     1.09724e+06	
       925.433	     1.01224e+06	
       925.484	     9.91681e+05	
       925.586	     1.09976e+06	
       925.688	     1.42180e+06	
       925.790	     1.78751e+06	
       925.892	     2.16011e+06	
       925.994	     2.51565e+06	
       926.096	     2.88076e+06	
       926.198	     3.22365e+06	
       926.232	     3.33232e+06	
       926.301	     3.54862e+06	
       926.369	     3.76498e+06	
       926.505	     4.15488e+06	
       926.641	     4.50530e+06	
       926.777	     4.81694e+06	
       926.913	     5.08373e+06	
       927.049	     5.30225e+06	
       927.185	     5.48252e+06	
       927.322	     5.62103e+06	
       927.458	     5.72502e+06	
       927.594	     5.79250e+06	
       927.730	     5.82948e+06	
       927.866	     5.83356e+06	
       928.002	     5.80290e+06	
       928.006	     5.80145e+06	
       928.094	     5.75427e+06	
       928.138	     5.72260e+06	
       928.182	     5.68600e+06	
       928.359	     5.49018e+06	
       928.535	     5.22004e+06	
       928.711	     4.86564e+06	
       928.887	     4.46050e+06	
       928.985	     4.21614e+06	
       929.037	     4.08055e+06	
       929.063	     4.00996e+06	
       929.089	     3.93730e+06	
       929.125	     3.83334e+06	
       929.193	     3.62461e+06	
       929.261	     3.41299e+06	
       929.398	     2.96666e+06	
       929.493	     2.63226e+06	
       929.525	     2.51712e+06	
       929.534	     2.48534e+06	
       929.543	     2.45356e+06	
       929.593	     2.27277e+06	
       929.617	     2.18396e+06	
       929.655	     2.04167e+06	
       929.693	     1.89740e+06	
       929.769	     1.61391e+06	
       929.827	     1.39244e+06	
       929.883	     1.19611e+06	
       929.910	     1.11927e+06	
       929.939	     1.06093e+06	
       929.954	     1.04499e+06	
       929.968	     1.03578e+06	
       929.982	     1.03163e+06	
       929.996	     1.02993e+06	
       930.010	     1.02950e+06	
       930.024	     1.03026e+06	
       930.038	     1.03228e+06	
       930.052	     1.03676e+06	
       930.081	     1.06262e+06	
       930.137	     1.19948e+06	
       930.201	     1.42852e+06	
       930.247	     1.60678e+06	
       930.249	     1.61457e+06	
       930.251	     1.62235e+06	
       930.301	     1.81321e+06	
       930.326	     1.90268e+06	
       930.402	     2.19499e+06	
       930.478	     2.47887e+06	
       930.630	     3.03393e+06	
       930.633	     3.04458e+06	
       930.782	     3.55245e+06	
       930.931	     4.04015e+06	
       931.080	     4.47677e+06	
       931.229	     4.89542e+06	
       931.379	     5.31400e+06	
       931.516	     5.66982e+06	
       931.528	     5.69979e+06	
       931.677	     6.04923e+06	
       931.838	     6.40257e+06	
       931.999	     6.71720e+06	
       932.160	     6.97682e+06	
       932.321	     7.20744e+06	
       932.483	     7.40731e+06	
       932.644	     7.58192e+06	
       932.805	     7.72153e+06	
       932.966	     7.83067e+06	
       933.127	     7.91961e+06	
       933.173	     7.94129e+06	
       933.265	     7.97958e+06	
       933.288	     7.98806e+06	
       933.403	     8.02378e+06	
       933.432	     8.03004e+06	
       933.542	     8.04681e+06	
       933.652	     8.05140e+06	
       933.762	     8.04248e+06	
       933.872	     8.02005e+06	
       933.982	     7.98112e+06	
       934.092	     7.92379e+06	
       934.202	     7.84936e+06	
       934.312	     7.75728e+06	
       934.413	     7.66112e+06	
       934.422	     7.65251e+06	
       934.533	     7.53828e+06	
       934.652	     7.39537e+06	
       934.771	     7.23176e+06	
       934.890	     7.05291e+06	
       935.009	     6.85225e+06	
       935.026	     6.82169e+06	
       935.128	     6.63633e+06	
       935.230	     6.45029e+06	
       935.332	     6.25130e+06	
       935.434	     6.04433e+06	
       935.537	     5.82781e+06	
       935.639	     5.59794e+06	
       935.741	     5.35522e+06	
       935.843	     5.09799e+06	
       935.945	     4.82190e+06	
       935.950	     4.80792e+06	
       936.047	     4.53065e+06	
       936.144	     4.23917e+06	
       936.338	     3.60724e+06	
       936.464	     3.16537e+06	
       936.532	     2.91345e+06	
       936.601	     2.65241e+06	
       936.645	     2.48145e+06	
       936.714	     2.20794e+06	
       936.737	     2.11593e+06	
       936.829	     1.75023e+06	
       936.887	     1.50551e+06	
       936.944	     1.28038e+06	
       936.973	     1.18785e+06	
       937.001	     1.12927e+06	
       937.015	     1.11740e+06	
       937.029	     1.11189e+06	
       937.043	     1.11041e+06	
       937.058	     1.11011e+06	
       937.072	     1.11016e+06	
       937.086	     1.11045e+06	
       937.101	     1.11112e+06	
       937.115	     1.11295e+06	
       937.143	     1.13104e+06	
       937.150	     1.14269e+06	
       937.186	     1.23623e+06	
       937.199	     1.28049e+06	
       937.250	     1.48184e+06	
       937.314	     1.75514e+06	
       937.341	     1.86479e+06	
       937.442	     2.27274e+06	
       937.543	     2.67792e+06	
       937.645	     3.07229e+06	
       937.746	     3.44730e+06	
       937.847	     3.80337e+06	
       937.896	     3.97283e+06	
       937.948	     4.15077e+06	
       938.000	     4.32205e+06	
       938.104	     4.65201e+06	
       938.208	     4.96859e+06	
       938.312	     5.27140e+06	
       938.416	     5.55760e+06	
       938.520	     5.83221e+06	
       938.543	     5.89162e+06	
       938.556	     5.92511e+06	
       938.624	     6.09783e+06	
       938.729	     6.35349e+06	
       938.736	     6.36920e+06	
       938.914	     6.80013e+06	
       939.093	     7.21841e+06	
       939.271	     7.64045e+06	
       939.449	     8.03663e+06	
       939.628	     8.42013e+06	
       939.807	     8.78949e+06	
       939.986	     9.16158e+06	
       940.164	     9.50982e+06	
       940.343	     9.82766e+06	
       940.521	     1.01223e+07	
       940.580	     1.02146e+07	
       940.660	     1.03369e+07	
       940.700	     1.03966e+07	
       940.740	     1.04546e+07	
       940.901	     1.06576e+07	
       941.061	     1.08467e+07	
       941.221	     1.10221e+07	
       941.381	     1.11815e+07	
       941.541	     1.13198e+07	
       941.701	     1.14490e+07	
       942.022	     1.16794e+07	
       942.342	     1.18705e+07	
       942.662	     1.20162e+07	
       942.917	     1.21009e+07	
       942.982	     1.21178e+07	
       943.048	     1.21328e+07	
       943.178	     1.21570e+07	
       943.438	     1.21621e+07	
       943.698	     1.21194e+07	
       943.958	     1.20272e+07	
       944.088	     1.19599e+07	
       944.219	     1.18756e+07	
       944.349	     1.17761e+07	
       944.479	     1.16608e+07	
       944.609	     1.15299e+07	
       944.691	     1.14392e+07	
       944.739	     1.13833e+07	
       944.845	     1.12627e+07	
       944.999	     1.10727e+07	
       945.153	     1.08638e+07	
       945.308	     1.06364e+07	
       945.462	     1.04044e+07	
       945.616	     1.01605e+07	
       945.770	     9.89850e+06	
       945.924	     9.62417e+06	
       946.232	     9.05969e+06	
       946.541	     8.48023e+06	
       946.695	     8.18149e+06	
       946.849	     7.87497e+06	
       947.004	     7.55547e+06	
       947.158	     7.21979e+06	
       947.312	     6.86784e+06	
       947.468	     6.49653e+06	
       947.471	     6.48909e+06	
       947.622	     6.10107e+06	
       947.624	     6.09711e+06	
       947.777	     5.68053e+06	
       947.930	     5.22450e+06	
       948.083	     4.73347e+06	
       948.233	     4.20829e+06	
       948.236	     4.19764e+06	
       948.389	     3.62562e+06	
       948.546	     2.99043e+06	
       948.627	     2.64371e+06	
       948.661	     2.49578e+06	
       948.702	     2.31693e+06	
       948.777	     1.98832e+06	
       948.835	     1.71414e+06	
       948.893	     1.44898e+06	
       948.922	     1.33970e+06	
       948.951	     1.27354e+06	
       948.966	     1.26495e+06	
       948.980	     1.26330e+06	
       948.994	     1.26332e+06	
       949.009	     1.26349e+06	
       949.023	     1.26368e+06	
       949.037	     1.26387e+06	
       949.052	     1.26410e+06	
       949.066	     1.26447e+06	
       949.095	     1.27550e+06	
       949.153	     1.45296e+06	
       949.230	     1.81272e+06	
       949.258	     1.94922e+06	
       949.269	     1.99831e+06	
       949.280	     2.04710e+06	
       949.330	     2.26954e+06	
       949.360	     2.40288e+06	
       949.430	     2.71348e+06	
       949.500	     3.01834e+06	
       949.640	     3.60539e+06	
       949.781	     4.15243e+06	
       949.795	     4.20468e+06	
       949.879	     4.51629e+06	
       949.921	     4.66863e+06	
       949.963	     4.81675e+06	
       950.131	     5.37951e+06	
       950.299	     5.90085e+06	
       950.467	     6.38199e+06	
       950.635	     6.83592e+06	
       950.719	     7.05423e+06	
       950.804	     7.26732e+06	
       950.888	     7.47633e+06	
       951.056	     7.88235e+06	
       951.224	     8.27392e+06	
       951.392	     8.65707e+06	
       951.728	     9.41183e+06	
       952.065	     1.02009e+07	
       952.401	     1.09954e+07	
       952.738	     1.17819e+07	
       953.075	     1.25999e+07	
       953.413	     1.34234e+07	
       953.750	     1.42581e+07	
       954.087	     1.50640e+07	
       954.425	     1.58161e+07	
       954.593	     1.61793e+07	
       954.762	     1.65353e+07	
       954.930	     1.68572e+07	
       955.099	     1.71556e+07	
       955.267	     1.74486e+07	
       955.437	     1.77339e+07	
       955.534	     1.78946e+07	
       955.774	     1.82826e+07	
       956.014	     1.86440e+07	
       956.494	     1.93852e+07	
       956.975	     2.00760e+07	
       957.455	     2.07156e+07	
       957.543	     2.08289e+07	
       957.936	     2.13079e+07	
       957.980	     2.13587e+07	
       958.416	     2.18379e+07	
       958.852	     2.22702e+07	
       959.289	     2.26494e+07	
       959.725	     2.29708e+07	
       959.893	     2.30792e+07	
       960.162	     2.32339e+07	
       960.430	     2.33630e+07	
       960.698	     2.34874e+07	
       960.966	     2.35824e+07	
       961.234	     2.36478e+07	
       961.503	     2.36824e+07	
       961.771	     2.36836e+07	
       962.039	     2.36527e+07	
       962.307	     2.35852e+07	
       962.576	     2.34826e+07	
       962.844	     2.33433e+07	
       963.112	     2.31637e+07	
       963.380	     2.29492e+07	
       963.648	     2.26968e+07	
       963.917	     2.24107e+07	
       964.047	     2.22600e+07	
       964.139	     2.21460e+07	
       964.185	     2.20871e+07	
       964.231	     2.20270e+07	
       964.415	     2.17811e+07	
       964.783	     2.12472e+07	
       965.152	     2.06552e+07	
       965.520	     2.00115e+07	
       965.888	     1.93232e+07	
       966.257	     1.85967e+07	
       966.625	     1.78485e+07	
       966.993	     1.70721e+07	
       967.428	     1.61409e+07	
       967.730	     1.54797e+07	
       968.032	     1.48125e+07	
       968.637	     1.34271e+07	
       969.185	     1.21132e+07	
       969.241	     1.19747e+07	
       969.297	     1.18351e+07	
       969.339	     1.17279e+07	
       969.409	     1.15504e+07	
       969.633	     1.09665e+07	
       969.779	     1.05695e+07	
       969.927	     1.01577e+07	
       970.074	     9.72822e+06	
       970.220	     9.28074e+06	
       970.367	     8.80865e+06	
       970.514	     8.30958e+06	
       970.660	     7.77642e+06	
       970.740	     7.46587e+06	
       970.807	     7.19459e+06	
       970.874	     6.91452e+06	
       971.008	     6.31586e+06	
       971.144	     5.65974e+06	
       971.209	     5.31479e+06	
       971.278	     4.92507e+06	
       971.348	     4.50872e+06	
       971.389	     4.25086e+06	
       971.467	     3.74490e+06	
       971.487	     3.60969e+06	
       971.585	     2.93552e+06	
       971.644	     2.52304e+06	
       971.703	     2.11894e+06	
       971.732	     1.92881e+06	
       971.762	     1.75187e+06	
       971.778	     1.67465e+06	
       971.792	     1.62592e+06	
       971.806	     1.60346e+06	
       971.821	     1.60092e+06	
       971.827	     1.60102e+06	
       971.833	     1.60112e+06	
       971.836	     1.60117e+06	
       971.839	     1.60121e+06	
       971.851	     1.60141e+06	
       971.866	     1.60202e+06	
       971.880	     1.61441e+06	
       971.910	     1.72301e+06	
       971.969	     2.08363e+06	
       972.037	     2.55305e+06	
       972.087	     2.90642e+06	
       972.137	     3.25767e+06	
       972.150	     3.34903e+06	
       972.237	     3.94144e+06	
       972.324	     4.50052e+06	
       972.499	     5.50068e+06	
       972.548	     5.75530e+06	
       972.673	     6.35233e+06	
       972.798	     6.89520e+06	
       972.923	     7.38749e+06	
       973.048	     7.84088e+06	
       973.173	     8.25944e+06	
       973.298	     8.64789e+06	
       973.351	     8.80720e+06	
       973.423	     9.01826e+06	
       973.548	     9.37037e+06	
       973.746	     9.89297e+06	
       973.943	     1.03914e+07	
       974.140	     1.08563e+07	
       974.337	     1.13078e+07	
       974.731	     1.21837e+07	
       975.126	     1.30095e+07	
       975.400	     1.35674e+07	
       975.520	     1.37930e+07	
       975.640	     1.40197e+07	
       975.880	     1.44799e+07	
       976.361	     1.53839e+07	
       976.601	     1.58555e+07	
       976.841	     1.63554e+07	
       977.081	     1.68943e+07	
       977.321	     1.74726e+07	
       977.802	     1.85603e+07	
       978.042	     1.91480e+07	
       978.282	     1.97209e+07	
       978.522	     2.03481e+07	
       978.762	     2.10386e+07	
       978.883	     2.14149e+07	
       979.003	     2.18145e+07	
       979.123	     2.22431e+07	
       979.181	     2.24613e+07	
       979.243	     2.27022e+07	
       979.305	     2.29523e+07	
       979.429	     2.33927e+07	
       979.553	     2.38656e+07	
       979.677	     2.43688e+07	
       979.801	     2.48995e+07	
       979.925	     2.54690e+07	
       980.049	     2.59607e+07	
       980.173	     2.63918e+07	
       980.298	     2.68454e+07	
       980.422	     2.73165e+07	
       980.546	     2.78070e+07	
       980.794	     2.86911e+07	
       981.042	     2.94952e+07	
       981.290	     3.03360e+07	
       981.787	     3.19399e+07	
       982.283	     3.35085e+07	
       982.628	     3.45842e+07	
       983.276	     3.66338e+07	
       983.923	     3.88430e+07	
       984.571	     4.10235e+07	
       985.113	     4.27351e+07	
       985.218	     4.30587e+07	
       985.866	     4.50863e+07	
       986.242	     4.62559e+07	
       986.618	     4.73966e+07	
       986.995	     4.83108e+07	
       987.371	     4.90280e+07	
       987.747	     4.96865e+07	
       987.935	     4.99966e+07	
       988.123	     5.02966e+07	
       988.312	     5.07898e+07	
       988.500	     5.12834e+07	
       988.688	     5.17750e+07	
       988.876	     5.22161e+07	
       989.192	     5.27854e+07	
       989.252	     5.28909e+07	
       989.312	     5.29952e+07	
       989.432	     5.32180e+07	
       989.673	     5.34222e+07	
       989.913	     5.35107e+07	
       990.153	     5.35773e+07	
       990.393	     5.37608e+07	
       990.633	     5.39638e+07	
       990.753	     5.40586e+07	
       990.873	     5.41501e+07	
