# Koester WD models
# teff = 16000 K (value for the effective temperature for the model. Temperatures are given in K)
# logg = 9.5 log(cm/s2) (value for Log(G) for the model.)
#
#   WAVELENGTH	#           FLUX	
#   (ANGSTROM)	#  (ERG/CM2/S/A)	
##############	################	
       899.230	     7.43257e+05	
       904.235	     7.84855e+05	
       908.450	     8.21231e+05	
       909.241	     8.28190e+05	
       910.032	     8.35183e+05	
       911.193	     8.45500e+05	
       911.613	     8.49226e+05	
       911.824	     8.51079e+05	
       911.929	     8.52000e+05	
       912.034	     8.52917e+05	
       912.139	     8.60240e+05	
       912.244	     8.67557e+05	
       912.349	     8.74880e+05	
       912.454	     8.82181e+05	
       912.559	     8.89438e+05	
       912.664	     8.96633e+05	
       912.770	     9.03720e+05	
       912.875	     9.10653e+05	
       912.886	     9.11367e+05	
       913.037	     9.20864e+05	
       913.085	     9.23782e+05	
       913.284	     9.35155e+05	
       913.531	     9.47231e+05	
       913.649	     9.51331e+05	
       913.736	     9.54903e+05	
       913.779	     9.56408e+05	
       913.822	     9.57724e+05	
       913.994	     9.58450e+05	
       914.165	     9.62019e+05	
       914.336	     9.58038e+05	
       914.439	     9.53869e+05	
       914.507	     9.51604e+05	
       914.575	     9.51240e+05	
       914.712	     9.52804e+05	
       914.848	     9.43565e+05	
       914.897	     9.34498e+05	
       914.984	     9.19287e+05	
       915.071	     9.11894e+05	
       915.245	     9.38139e+05	
       915.419	     9.31467e+05	
       915.544	     8.77673e+05	
       915.594	     8.56269e+05	
       915.609	     8.50313e+05	
       915.643	     8.42522e+05	
       915.677	     8.42091e+05	
       915.745	     8.60240e+05	
       915.881	     9.42946e+05	
       916.017	     9.97531e+05	
       916.153	     9.60746e+05	
       916.289	     8.48755e+05	
       916.379	     7.87915e+05	
       916.421	     7.78216e+05	
       916.425	     7.78163e+05	
       916.429	     7.78267e+05	
       916.479	     7.93013e+05	
       916.580	     8.77855e+05	
       916.680	     9.92605e+05	
       916.780	     1.08432e+06	
       916.880	     1.12720e+06	
       916.980	     1.09801e+06	
       917.080	     1.00850e+06	
       917.180	     8.76413e+05	
       917.182	     8.73837e+05	
       917.280	     7.49870e+05	
       917.378	     6.98816e+05	
       917.575	     8.92982e+05	
       917.771	     1.19358e+06	
       917.967	     1.33532e+06	
       918.163	     1.22461e+06	
       918.359	     9.15184e+05	
       918.510	     6.87534e+05	
       918.556	     6.50175e+05	
       918.602	     6.37724e+05	
       918.694	     6.89715e+05	
       918.878	     1.00112e+06	
       919.062	     1.34973e+06	
       919.201	     1.54264e+06	
       919.241	     1.58125e+06	
       919.246	     1.58546e+06	
       919.251	     1.58953e+06	
       919.301	     1.62201e+06	
       919.402	     1.64529e+06	
       919.502	     1.62191e+06	
       919.602	     1.54085e+06	
       919.702	     1.40662e+06	
       919.802	     1.24253e+06	
       919.902	     1.04693e+06	
       920.002	     8.49122e+05	
       920.102	     6.78694e+05	
       920.165	     6.18083e+05	
       920.189	     6.07364e+05	
       920.202	     6.04904e+05	
       920.215	     6.04078e+05	
       920.265	     6.18843e+05	
       920.366	     7.39374e+05	
       920.466	     9.28491e+05	
       920.566	     1.13902e+06	
       920.666	     1.35465e+06	
       920.766	     1.55053e+06	
       920.866	     1.73297e+06	
       920.966	     1.87468e+06	
       921.066	     1.98411e+06	
       921.166	     2.05706e+06	
       921.266	     2.09033e+06	
       921.367	     2.08951e+06	
       921.467	     2.05157e+06	
       921.567	     1.97076e+06	
       921.667	     1.85469e+06	
       921.767	     1.70653e+06	
       921.867	     1.52226e+06	
       921.967	     1.32711e+06	
       922.067	     1.11249e+06	
       922.167	     8.94308e+05	
       922.267	     7.03110e+05	
       922.331	     6.20596e+05	
       922.368	     6.00393e+05	
       922.405	     5.95150e+05	
       922.479	     6.21699e+05	
       922.627	     8.69027e+05	
       922.740	     1.12004e+06	
       922.775	     1.19858e+06	
       922.810	     1.28012e+06	
       922.880	     1.43159e+06	
       923.020	     1.73612e+06	
       923.160	     2.00878e+06	
       923.301	     2.25126e+06	
       923.441	     2.44348e+06	
       923.581	     2.58597e+06	
       923.721	     2.68018e+06	
       923.861	     2.73081e+06	
       924.001	     2.74101e+06	
       924.141	     2.70683e+06	
       924.282	     2.62463e+06	
       924.422	     2.49125e+06	
       924.562	     2.30687e+06	
       924.702	     2.07509e+06	
       924.842	     1.81523e+06	
       924.982	     1.51521e+06	
       925.041	     1.38889e+06	
       925.122	     1.20365e+06	
       925.152	     1.13481e+06	
       925.262	     8.79335e+05	
       925.374	     6.63486e+05	
       925.484	     6.06199e+05	
       925.594	     6.65220e+05	
       925.705	     8.83922e+05	
       925.815	     1.14409e+06	
       925.926	     1.40556e+06	
       926.036	     1.65611e+06	
       926.147	     1.90379e+06	
       926.257	     2.13160e+06	
       926.319	     2.25564e+06	
       926.369	     2.35503e+06	
       926.419	     2.45088e+06	
       926.519	     2.63010e+06	
       926.619	     2.79396e+06	
       926.719	     2.94502e+06	
       926.819	     3.08063e+06	
       926.919	     3.20056e+06	
       927.019	     3.30395e+06	
       927.119	     3.39386e+06	
       927.219	     3.47064e+06	
       927.320	     3.53385e+06	
       927.420	     3.58497e+06	
       927.520	     3.62380e+06	
       927.620	     3.65106e+06	
       927.720	     3.66812e+06	
       927.820	     3.67394e+06	
       927.920	     3.66841e+06	
       928.020	     3.65081e+06	
       928.058	     3.63859e+06	
       928.120	     3.61305e+06	
       928.182	     3.58142e+06	
       928.307	     3.49738e+06	
       928.431	     3.39188e+06	
       928.555	     3.25799e+06	
       928.679	     3.10065e+06	
       928.803	     2.92263e+06	
       928.927	     2.73756e+06	
       929.013	     2.60090e+06	
       929.051	     2.53613e+06	
       929.069	     2.50448e+06	
       929.089	     2.46871e+06	
       929.165	     2.32642e+06	
       929.261	     2.13665e+06	
       929.365	     1.92320e+06	
       929.454	     1.72498e+06	
       929.543	     1.52097e+06	
       929.673	     1.20753e+06	
       929.721	     1.09075e+06	
       929.769	     9.72339e+05	
       929.833	     8.16447e+05	
       929.847	     7.84223e+05	
       929.865	     7.45117e+05	
       929.883	     7.13138e+05	
       929.910	     6.72090e+05	
       929.927	     6.54746e+05	
       929.933	     6.49952e+05	
       929.939	     6.45751e+05	
       929.954	     6.40156e+05	
       929.968	     6.37417e+05	
       929.982	     6.36509e+05	
       929.996	     6.36257e+05	
       930.010	     6.36251e+05	
       930.024	     6.36468e+05	
       930.038	     6.36926e+05	
       930.052	     6.38048e+05	
       930.081	     6.46829e+05	
       930.137	     7.15250e+05	
       930.201	     8.52876e+05	
       930.247	     9.67557e+05	
       930.249	     9.72615e+05	
       930.251	     9.77673e+05	
       930.301	     1.10276e+06	
       930.326	     1.16109e+06	
       930.402	     1.35246e+06	
       930.478	     1.53738e+06	
       930.630	     1.89495e+06	
       930.633	     1.90179e+06	
       930.782	     2.22670e+06	
       930.931	     2.53544e+06	
       931.080	     2.81331e+06	
       931.229	     3.07641e+06	
       931.379	     3.34313e+06	
       931.516	     3.57350e+06	
       931.528	     3.59304e+06	
       931.677	     3.81923e+06	
       931.838	     4.04618e+06	
       931.999	     4.24784e+06	
       932.160	     4.41155e+06	
       932.321	     4.55660e+06	
       932.483	     4.68248e+06	
       932.644	     4.79272e+06	
       932.805	     4.88081e+06	
       932.966	     4.94920e+06	
       933.127	     5.00512e+06	
       933.173	     5.01876e+06	
       933.265	     5.04285e+06	
       933.288	     5.04823e+06	
       933.403	     5.07072e+06	
       933.432	     5.07477e+06	
       933.542	     5.08596e+06	
       933.652	     5.08966e+06	
       933.762	     5.08520e+06	
       933.872	     5.07235e+06	
       933.982	     5.04885e+06	
       934.092	     5.01332e+06	
       934.202	     4.96714e+06	
       934.312	     4.90971e+06	
       934.413	     4.84892e+06	
       934.422	     4.84346e+06	
       934.533	     4.77073e+06	
       934.652	     4.67943e+06	
       934.771	     4.57479e+06	
       934.890	     4.45871e+06	
       935.009	     4.32742e+06	
       935.026	     4.30731e+06	
       935.128	     4.18689e+06	
       935.230	     4.06833e+06	
       935.332	     3.94229e+06	
       935.434	     3.81066e+06	
       935.537	     3.67152e+06	
       935.639	     3.52480e+06	
       935.741	     3.37149e+06	
       935.843	     3.20810e+06	
       935.945	     3.03316e+06	
       935.950	     3.02436e+06	
       936.047	     2.84963e+06	
       936.144	     2.66314e+06	
       936.338	     2.26252e+06	
       936.464	     1.98131e+06	
       936.532	     1.81839e+06	
       936.601	     1.65054e+06	
       936.645	     1.53869e+06	
       936.714	     1.36039e+06	
       936.737	     1.29979e+06	
       936.829	     1.06063e+06	
       936.887	     9.02982e+05	
       936.944	     7.68189e+05	
       936.973	     7.19519e+05	
       937.001	     6.94898e+05	
       937.015	     6.91386e+05	
       937.029	     6.90264e+05	
       937.043	     6.90142e+05	
       937.058	     6.90220e+05	
       937.072	     6.90324e+05	
       937.086	     6.90444e+05	
       937.101	     6.90607e+05	
       937.115	     6.90949e+05	
       937.143	     6.96039e+05	
       937.150	     7.00079e+05	
       937.186	     7.44583e+05	
       937.199	     7.68496e+05	
       937.250	     8.88603e+05	
       937.314	     1.06369e+06	
       937.341	     1.13602e+06	
       937.442	     1.40279e+06	
       937.543	     1.66718e+06	
       937.645	     1.92129e+06	
       937.746	     2.16193e+06	
       937.847	     2.38926e+06	
       937.896	     2.49681e+06	
       937.948	     2.60860e+06	
       938.000	     2.71746e+06	
       938.104	     2.92869e+06	
       938.208	     3.12851e+06	
       938.312	     3.32117e+06	
       938.416	     3.50313e+06	
       938.520	     3.67730e+06	
       938.624	     3.84767e+06	
       938.752	     4.04747e+06	
       938.833	     4.17307e+06	
       938.881	     4.24671e+06	
       938.914	     4.29688e+06	
       939.076	     4.54020e+06	
       939.271	     4.84248e+06	
       939.466	     5.12325e+06	
       939.661	     5.38862e+06	
       939.857	     5.64726e+06	
       940.052	     5.89916e+06	
       940.144	     6.01144e+06	
       940.247	     6.13088e+06	
       940.293	     6.18130e+06	
       940.442	     6.33870e+06	
       940.591	     6.48711e+06	
       940.690	     6.58098e+06	
       940.740	     6.62653e+06	
       940.790	     6.66872e+06	
       940.891	     6.75053e+06	
       941.091	     6.90409e+06	
       941.291	     7.04442e+06	
       941.491	     7.16355e+06	
       941.691	     7.26974e+06	
       941.891	     7.36675e+06	
       942.092	     7.45447e+06	
       942.292	     7.53203e+06	
       942.337	     7.54752e+06	
       942.492	     7.59684e+06	
       942.692	     7.65081e+06	
       942.870	     7.68917e+06	
       943.048	     7.71826e+06	
       943.225	     7.73680e+06	
       943.403	     7.73749e+06	
       943.580	     7.72483e+06	
       943.758	     7.69800e+06	
       943.935	     7.65619e+06	
       944.114	     7.59713e+06	
       944.291	     7.51849e+06	
       944.469	     7.42151e+06	
       944.646	     7.30618e+06	
       944.824	     7.17766e+06	
       945.001	     7.04021e+06	
       945.051	     6.99915e+06	
       945.179	     6.88728e+06	
       945.308	     6.76734e+06	
       945.564	     6.51507e+06	
       945.820	     6.23330e+06	
       946.076	     5.94100e+06	
       946.333	     5.63058e+06	
       946.589	     5.32550e+06	
       946.845	     5.00167e+06	
       947.044	     4.73331e+06	
       947.101	     4.65399e+06	
       947.158	     4.57337e+06	
       947.272	     4.40838e+06	
       947.386	     4.23581e+06	
       947.501	     4.05620e+06	
       947.615	     3.86997e+06	
       947.729	     3.67478e+06	
       947.831	     3.48956e+06	
       947.843	     3.46716e+06	
       947.957	     3.24731e+06	
       948.083	     2.98695e+06	
       948.209	     2.70942e+06	
       948.335	     2.41445e+06	
       948.377	     2.31143e+06	
       948.461	     2.09577e+06	
       948.546	     1.87031e+06	
       948.651	     1.57468e+06	
       948.661	     1.54607e+06	
       948.714	     1.39370e+06	
       948.777	     1.21292e+06	
       948.835	     1.03544e+06	
       948.893	     8.76046e+05	
       948.922	     8.18730e+05	
       948.951	     7.92247e+05	
       948.966	     7.90393e+05	
       948.980	     7.90283e+05	
       948.994	     7.90393e+05	
       949.009	     7.90528e+05	
       949.023	     7.90651e+05	
       949.037	     7.90773e+05	
       949.052	     7.90909e+05	
       949.066	     7.91044e+05	
       949.095	     7.93522e+05	
       949.153	     8.78572e+05	
       949.230	     1.09833e+06	
       949.258	     1.18715e+06	
       949.269	     1.21932e+06	
       949.280	     1.25168e+06	
       949.330	     1.39708e+06	
       949.360	     1.48435e+06	
       949.430	     1.68862e+06	
       949.500	     1.88864e+06	
       949.640	     2.26924e+06	
       949.781	     2.61921e+06	
       949.795	     2.65299e+06	
       949.879	     2.85186e+06	
       949.921	     2.94783e+06	
       949.963	     3.04221e+06	
       950.131	     3.40181e+06	
       950.299	     3.73344e+06	
       950.467	     4.03996e+06	
       950.635	     4.33065e+06	
       950.719	     4.47140e+06	
       950.804	     4.60825e+06	
       950.888	     4.74183e+06	
       951.056	     5.00311e+06	
       951.224	     5.25667e+06	
       951.392	     5.50203e+06	
       951.728	     5.98263e+06	
       952.064	     6.48211e+06	
       952.401	     6.99067e+06	
       952.738	     7.49066e+06	
       953.413	     8.52141e+06	
       953.750	     9.05065e+06	
       954.087	     9.56222e+06	
       954.425	     1.00471e+07	
       954.593	     1.02825e+07	
       954.762	     1.05143e+07	
       954.930	     1.07251e+07	
       955.099	     1.09207e+07	
       955.267	     1.11124e+07	
       955.437	     1.13012e+07	
       955.534	     1.14078e+07	
       955.774	     1.16656e+07	
       956.014	     1.19044e+07	
       956.494	     1.23967e+07	
       956.975	     1.28567e+07	
       957.455	     1.32813e+07	
       957.543	     1.33554e+07	
       957.936	     1.36738e+07	
       957.980	     1.37079e+07	
       958.416	     1.40277e+07	
       958.852	     1.43162e+07	
       959.289	     1.45689e+07	
       959.725	     1.47870e+07	
       959.893	     1.48606e+07	
       960.162	     1.49654e+07	
       960.430	     1.50526e+07	
       960.698	     1.51398e+07	
       960.966	     1.52065e+07	
       961.234	     1.52520e+07	
       961.503	     1.52759e+07	
       961.771	     1.52762e+07	
       962.039	     1.52539e+07	
       962.307	     1.52067e+07	
       962.576	     1.51354e+07	
       962.844	     1.50389e+07	
       963.112	     1.49149e+07	
       963.380	     1.47674e+07	
       963.648	     1.45941e+07	
       963.917	     1.43985e+07	
       964.047	     1.42955e+07	
       964.139	     1.42172e+07	
       964.185	     1.41766e+07	
       964.231	     1.41354e+07	
       964.415	     1.39697e+07	
       964.783	     1.36142e+07	
       965.152	     1.32191e+07	
       965.520	     1.27918e+07	
       965.888	     1.23395e+07	
       966.257	     1.18670e+07	
       966.993	     1.08868e+07	
       967.428	     1.02952e+07	
       967.730	     9.87685e+06	
       968.032	     9.45616e+06	
       968.334	     9.02303e+06	
       968.637	     8.58506e+06	
       968.939	     8.13377e+06	
       969.185	     7.75521e+06	
       969.241	     7.66765e+06	
       969.297	     7.57916e+06	
       969.339	     7.51092e+06	
       969.409	     7.39817e+06	
       969.633	     7.02378e+06	
       969.779	     6.76866e+06	
       969.927	     6.50395e+06	
       970.074	     6.22752e+06	
       970.220	     5.93642e+06	
       970.367	     5.63115e+06	
       970.514	     5.30873e+06	
       970.660	     4.96343e+06	
       970.740	     4.76476e+06	
       970.807	     4.59031e+06	
       970.874	     4.40941e+06	
       971.008	     4.02790e+06	
       971.144	     3.60595e+06	
       971.209	     3.38585e+06	
       971.278	     3.13320e+06	
       971.348	     2.86571e+06	
       971.389	     2.69726e+06	
       971.467	     2.36709e+06	
       971.487	     2.27732e+06	
       971.585	     1.82993e+06	
       971.644	     1.55722e+06	
       971.703	     1.29360e+06	
       971.732	     1.17700e+06	
       971.762	     1.07669e+06	
       971.778	     1.03879e+06	
       971.792	     1.01924e+06	
       971.806	     1.01292e+06	
       971.821	     1.01272e+06	
       971.827	     1.01278e+06	
       971.833	     1.01285e+06	
       971.836	     1.01288e+06	
       971.839	     1.01291e+06	
       971.851	     1.01304e+06	
       971.866	     1.01323e+06	
       971.880	     1.01597e+06	
       971.910	     1.06210e+06	
       971.969	     1.27186e+06	
       972.037	     1.57709e+06	
       972.087	     1.81043e+06	
       972.137	     2.04506e+06	
       972.150	     2.10524e+06	
       972.237	     2.49617e+06	
       972.324	     2.86135e+06	
       972.499	     3.50705e+06	
       972.548	     3.66916e+06	
       972.673	     4.05382e+06	
       972.798	     4.40002e+06	
       972.923	     4.71723e+06	
       973.048	     5.00811e+06	
       973.173	     5.27835e+06	
       973.298	     5.53147e+06	
       973.351	     5.63489e+06	
       973.423	     5.77107e+06	
       973.548	     5.99956e+06	
       973.746	     6.34105e+06	
       973.943	     6.66530e+06	
       974.140	     6.96702e+06	
       974.337	     7.26006e+06	
       974.731	     7.82762e+06	
       975.126	     8.35783e+06	
       975.400	     8.71594e+06	
       975.520	     8.86058e+06	
       975.640	     9.00541e+06	
       975.880	     9.29896e+06	
       976.361	     9.87475e+06	
       976.601	     1.01751e+07	
       976.841	     1.04930e+07	
       977.081	     1.08365e+07	
       977.321	     1.12034e+07	
       977.802	     1.18981e+07	
       978.042	     1.22741e+07	
       978.282	     1.26436e+07	
       978.522	     1.30451e+07	
       978.762	     1.34953e+07	
       978.883	     1.37401e+07	
       979.003	     1.40001e+07	
       979.123	     1.42788e+07	
       979.181	     1.44228e+07	
       979.243	     1.45830e+07	
       979.305	     1.47490e+07	
       979.429	     1.50386e+07	
       979.553	     1.53466e+07	
       979.677	     1.56807e+07	
       979.801	     1.60387e+07	
       979.925	     1.64198e+07	
       980.049	     1.67488e+07	
       980.173	     1.70374e+07	
       980.298	     1.73376e+07	
       980.422	     1.76559e+07	
       980.546	     1.79888e+07	
       980.794	     1.85869e+07	
       981.042	     1.91217e+07	
       981.290	     1.96859e+07	
       981.787	     2.07752e+07	
       982.779	     2.28720e+07	
       983.621	     2.47261e+07	
       983.772	     2.50798e+07	
       983.923	     2.54396e+07	
       984.226	     2.61322e+07	
       984.830	     2.74854e+07	
       985.434	     2.87492e+07	
       985.459	     2.88030e+07	
       986.039	     3.00542e+07	
       986.329	     3.06539e+07	
       986.618	     3.12501e+07	
       986.907	     3.17295e+07	
       987.198	     3.20813e+07	
       987.487	     3.24194e+07	
       987.777	     3.27260e+07	
       988.066	     3.30181e+07	
       988.357	     3.34693e+07	
       988.560	     3.38167e+07	
