# Koester WD models
# teff = 17500 K (value for the effective temperature for the model. Temperatures are given in K)
# logg = 9.5 log(cm/s2) (value for Log(G) for the model.)
#
#   WAVELENGTH	#           FLUX	
#   (ANGSTROM)	#  (ERG/CM2/S/A)	
##############	################	
       899.230	     2.27481e+06	
       904.235	     2.38723e+06	
       908.450	     2.48494e+06	
       909.241	     2.50356e+06	
       910.032	     2.52226e+06	
       911.193	     2.54978e+06	
       911.613	     2.55971e+06	
       911.824	     2.56464e+06	
       911.929	     2.56709e+06	
       912.034	     2.56953e+06	
       912.139	     2.58557e+06	
       912.244	     2.60152e+06	
       912.349	     2.61736e+06	
       912.454	     2.63308e+06	
       912.559	     2.64865e+06	
       912.664	     2.66404e+06	
       912.770	     2.67915e+06	
       912.875	     2.69393e+06	
       912.886	     2.69545e+06	
       913.037	     2.71591e+06	
       913.085	     2.72222e+06	
       913.241	     2.74188e+06	
       913.284	     2.74711e+06	
       913.531	     2.77470e+06	
       913.822	     2.80001e+06	
       914.059	     2.81036e+06	
       914.112	     2.81365e+06	
       914.165	     2.81553e+06	
       914.271	     2.81509e+06	
       914.391	     2.80838e+06	
       914.448	     2.80689e+06	
       914.483	     2.80597e+06	
       914.575	     2.80554e+06	
       914.604	     2.80616e+06	
       914.760	     2.80131e+06	
       914.916	     2.76679e+06	
       915.071	     2.73943e+06	
       915.122	     2.74459e+06	
       915.226	     2.76765e+06	
       915.252	     2.77288e+06	
       915.382	     2.76454e+06	
       915.512	     2.67546e+06	
       915.609	     2.60285e+06	
       915.643	     2.58808e+06	
       915.677	     2.59134e+06	
       915.745	     2.63271e+06	
       915.881	     2.78486e+06	
       916.017	     2.88059e+06	
       916.153	     2.81140e+06	
       916.289	     2.60110e+06	
       916.379	     2.47840e+06	
       916.421	     2.45977e+06	
       916.425	     2.45994e+06	
       916.429	     2.46047e+06	
       916.479	     2.49757e+06	
       916.580	     2.68430e+06	
       916.680	     2.91219e+06	
       916.780	     3.08731e+06	
       916.880	     3.15859e+06	
       916.980	     3.09614e+06	
       917.080	     2.90555e+06	
       917.180	     2.61996e+06	
       917.182	     2.61459e+06	
       917.280	     2.32745e+06	
       917.378	     2.19371e+06	
       917.575	     2.67871e+06	
       917.771	     3.32497e+06	
       917.967	     3.59596e+06	
       918.163	     3.34130e+06	
       918.359	     2.64526e+06	
       918.510	     2.07130e+06	
       918.556	     1.96027e+06	
       918.602	     1.91927e+06	
       918.694	     2.07963e+06	
       918.878	     2.86298e+06	
       919.062	     3.63470e+06	
       919.201	     4.04508e+06	
       919.241	     4.12397e+06	
       919.246	     4.13242e+06	
       919.251	     4.14056e+06	
       919.301	     4.20662e+06	
       919.402	     4.25039e+06	
       919.502	     4.19434e+06	
       919.602	     4.01587e+06	
       919.702	     3.70780e+06	
       919.802	     3.34727e+06	
       919.902	     2.89459e+06	
       920.002	     2.42427e+06	
       920.102	     1.97736e+06	
       920.165	     1.77932e+06	
       920.189	     1.73821e+06	
       920.202	     1.72746e+06	
       920.215	     1.72374e+06	
       920.265	     1.78144e+06	
       920.366	     2.14368e+06	
       920.466	     2.62425e+06	
       920.566	     3.12488e+06	
       920.666	     3.61594e+06	
       920.766	     4.06751e+06	
       920.866	     4.48315e+06	
       920.966	     4.80428e+06	
       921.066	     5.05165e+06	
       921.166	     5.21683e+06	
       921.266	     5.28780e+06	
       921.367	     5.28209e+06	
       921.467	     5.19334e+06	
       921.567	     5.00198e+06	
       921.667	     4.72967e+06	
       921.767	     4.38730e+06	
       921.867	     3.95781e+06	
       921.967	     3.50504e+06	
       922.067	     3.00779e+06	
       922.167	     2.49009e+06	
       922.267	     1.99185e+06	
       922.331	     1.73264e+06	
       922.368	     1.64387e+06	
       922.405	     1.61731e+06	
       922.479	     1.73546e+06	
       922.627	     2.42852e+06	
       922.670	     2.66257e+06	
       922.740	     3.02793e+06	
       922.775	     3.21529e+06	
       922.810	     3.40379e+06	
       922.950	     4.11040e+06	
       923.090	     4.79712e+06	
       923.230	     5.40310e+06	
       923.371	     5.92322e+06	
       923.511	     6.31633e+06	
       923.651	     6.61230e+06	
       923.791	     6.78524e+06	
       923.931	     6.85684e+06	
       924.071	     6.82473e+06	
       924.211	     6.67544e+06	
       924.352	     6.40329e+06	
       924.492	     6.02278e+06	
       924.632	     5.52773e+06	
       924.772	     4.93824e+06	
       924.912	     4.27872e+06	
       925.052	     3.56558e+06	
       925.192	     2.81445e+06	
       925.333	     2.03306e+06	
       925.434	     1.62934e+06	
       925.462	     1.59016e+06	
       925.473	     1.58429e+06	
       925.484	     1.58257e+06	
       925.534	     1.63110e+06	
       925.634	     2.03363e+06	
       925.734	     2.60243e+06	
       925.834	     3.15633e+06	
       925.934	     3.70441e+06	
       926.134	     4.76567e+06	
       926.232	     5.24894e+06	
       926.301	     5.57956e+06	
       926.335	     5.74679e+06	
       926.369	     5.90798e+06	
       926.505	     6.50281e+06	
       926.641	     7.04851e+06	
       926.777	     7.54504e+06	
       926.913	     7.96714e+06	
       927.049	     8.31900e+06	
       927.185	     8.60897e+06	
       927.322	     8.83133e+06	
       927.458	     8.99648e+06	
       927.594	     9.10314e+06	
       927.730	     9.15972e+06	
       927.866	     9.16311e+06	
       928.002	     9.10993e+06	
       928.006	     9.10745e+06	
       928.094	     9.03013e+06	
       928.138	     8.97877e+06	
       928.182	     8.91930e+06	
       928.359	     8.60284e+06	
       928.535	     8.17486e+06	
       928.711	     7.61908e+06	
       928.887	     6.97666e+06	
       928.985	     6.59540e+06	
       929.037	     6.38472e+06	
       929.063	     6.27533e+06	
       929.089	     6.16343e+06	
       929.125	     6.00371e+06	
       929.193	     5.68669e+06	
       929.261	     5.36245e+06	
       929.398	     4.69159e+06	
       929.493	     4.18611e+06	
       929.525	     4.01304e+06	
       929.534	     3.96500e+06	
       929.543	     3.91612e+06	
       929.593	     3.64173e+06	
       929.617	     3.50759e+06	
       929.655	     3.29041e+06	
       929.693	     3.06887e+06	
       929.769	     2.63265e+06	
       929.827	     2.28311e+06	
       929.883	     1.95143e+06	
       929.910	     1.81231e+06	
       929.939	     1.69742e+06	
       929.954	     1.66106e+06	
       929.968	     1.63756e+06	
       929.982	     1.62610e+06	
       929.996	     1.62090e+06	
       930.010	     1.61938e+06	
       930.024	     1.62139e+06	
       930.038	     1.62707e+06	
       930.052	     1.63904e+06	
       930.081	     1.70000e+06	
       930.137	     1.95667e+06	
       930.201	     2.34072e+06	
       930.247	     2.62156e+06	
       930.249	     2.63366e+06	
       930.251	     2.64575e+06	
       930.301	     2.94205e+06	
       930.326	     3.07697e+06	
       930.402	     3.52468e+06	
       930.478	     3.95470e+06	
       930.630	     4.79335e+06	
       930.633	     4.80924e+06	
       930.782	     5.57422e+06	
       930.931	     6.31815e+06	
       931.080	     6.99328e+06	
       931.229	     7.65421e+06	
       931.379	     8.31055e+06	
       931.528	     8.91568e+06	
       931.677	     9.46769e+06	
       931.788	     9.85939e+06	
       931.814	     9.94870e+06	
       931.826	     9.98935e+06	
       931.838	     1.00296e+07	
       931.888	     1.01929e+07	
       931.988	     1.05006e+07	
       932.188	     1.10184e+07	
       932.389	     1.14604e+07	
       932.589	     1.18327e+07	
       932.789	     1.21292e+07	
       932.989	     1.23478e+07	
       933.189	     1.25159e+07	
       933.347	     1.26120e+07	
       933.375	     1.26255e+07	
       933.377	     1.26264e+07	
       933.389	     1.26319e+07	
       933.403	     1.26380e+07	
       933.432	     1.26478e+07	
       933.460	     1.26562e+07	
       933.542	     1.26736e+07	
       933.652	     1.26795e+07	
       933.762	     1.26628e+07	
       933.872	     1.26241e+07	
       933.982	     1.25591e+07	
       934.092	     1.24652e+07	
       934.202	     1.23439e+07	
       934.312	     1.21944e+07	
       934.413	     1.20382e+07	
       934.422	     1.20242e+07	
       934.533	     1.18384e+07	
       934.652	     1.16070e+07	
       934.771	     1.13446e+07	
       934.890	     1.10631e+07	
       935.009	     1.07454e+07	
       935.026	     1.06970e+07	
       935.128	     1.04034e+07	
       935.230	     1.01060e+07	
       935.332	     9.78845e+06	
       935.434	     9.45761e+06	
       935.537	     9.11134e+06	
       935.639	     8.74679e+06	
       935.741	     8.36534e+06	
       935.843	     7.95753e+06	
       935.945	     7.52393e+06	
       935.950	     7.50212e+06	
       936.047	     7.07232e+06	
       936.144	     6.62153e+06	
       936.338	     5.65515e+06	
       936.464	     4.98932e+06	
       936.532	     4.60837e+06	
       936.601	     4.21573e+06	
       936.645	     3.95558e+06	
       936.714	     3.54208e+06	
       936.737	     3.40065e+06	
       936.829	     2.83765e+06	
       936.887	     2.45276e+06	
       936.944	     2.07287e+06	
       936.973	     1.90391e+06	
       937.001	     1.78523e+06	
       937.015	     1.75515e+06	
       937.029	     1.73899e+06	
       937.043	     1.73363e+06	
       937.058	     1.73148e+06	
       937.072	     1.73128e+06	
       937.086	     1.73199e+06	
       937.101	     1.73469e+06	
       937.115	     1.74057e+06	
       937.143	     1.78790e+06	
       937.150	     1.81305e+06	
       937.186	     1.99445e+06	
       937.199	     2.07213e+06	
       937.250	     2.41420e+06	
       937.314	     2.84514e+06	
       937.341	     3.01651e+06	
       937.442	     3.64177e+06	
       937.543	     4.25441e+06	
       937.645	     4.84745e+06	
       937.746	     5.41224e+06	
       937.847	     5.95338e+06	
       937.896	     6.21288e+06	
       937.948	     6.48265e+06	
       938.000	     6.74500e+06	
       938.104	     7.25457e+06	
       938.208	     7.74459e+06	
       938.312	     8.21973e+06	
       938.416	     8.67142e+06	
       938.520	     9.10229e+06	
       938.543	     9.19594e+06	
       938.556	     9.24891e+06	
       938.624	     9.52258e+06	
       938.729	     9.92947e+06	
       938.736	     9.95448e+06	
       938.914	     1.06383e+07	
       939.093	     1.13027e+07	
       939.271	     1.19641e+07	
       939.449	     1.25900e+07	
       939.628	     1.32052e+07	
       939.807	     1.37995e+07	
       939.986	     1.43949e+07	
       940.164	     1.49523e+07	
       940.343	     1.54622e+07	
       940.521	     1.59336e+07	
       940.580	     1.60810e+07	
       940.660	     1.62767e+07	
       940.700	     1.63718e+07	
       940.740	     1.64640e+07	
       940.901	     1.67800e+07	
       941.061	     1.70746e+07	
       941.221	     1.73483e+07	
       941.381	     1.75972e+07	
       941.541	     1.78149e+07	
       941.701	     1.80181e+07	
       942.022	     1.83818e+07	
       942.342	     1.86832e+07	
       942.662	     1.89138e+07	
       942.917	     1.90486e+07	
       942.982	     1.90759e+07	
       943.048	     1.91000e+07	
       943.178	     1.91390e+07	
       943.438	     1.91478e+07	
       943.698	     1.90818e+07	
       943.828	     1.90198e+07	
       943.958	     1.89375e+07	
       944.088	     1.88312e+07	
       944.219	     1.86970e+07	
       944.349	     1.85386e+07	
       944.479	     1.83558e+07	
       944.609	     1.81486e+07	
       944.739	     1.79164e+07	
       944.999	     1.74160e+07	
       945.115	     1.71653e+07	
       945.212	     1.69455e+07	
       945.260	     1.68313e+07	
       945.308	     1.67141e+07	
       945.500	     1.62507e+07	
       945.692	     1.57549e+07	
       945.884	     1.52160e+07	
       946.076	     1.46696e+07	
       946.147	     1.44589e+07	
       946.268	     1.40890e+07	
       946.401	     1.36915e+07	
       946.653	     1.29222e+07	
       946.906	     1.21205e+07	
       947.032	     1.16989e+07	
       947.158	     1.12631e+07	
       947.284	     1.08097e+07	
       947.410	     1.03343e+07	
       947.538	     9.83840e+06	
       947.664	     9.32004e+06	
       947.790	     8.77092e+06	
       947.916	     8.18649e+06	
       947.922	     8.16022e+06	
       948.002	     7.76894e+06	
       948.043	     7.56791e+06	
       948.083	     7.36283e+06	
       948.244	     6.50278e+06	
       948.265	     6.38752e+06	
       948.405	     5.58902e+06	
       948.546	     4.72854e+06	
       948.595	     4.41303e+06	
       948.661	     3.98213e+06	
       948.686	     3.81528e+06	
       948.777	     3.20241e+06	
       948.835	     2.77257e+06	
       948.893	     2.32643e+06	
       948.922	     2.12589e+06	
       948.951	     1.98910e+06	
       948.966	     1.96520e+06	
       948.980	     1.95862e+06	
       948.994	     1.95780e+06	
       949.009	     1.95789e+06	
       949.023	     1.95815e+06	
       949.037	     1.95845e+06	
       949.052	     1.95896e+06	
       949.066	     1.96034e+06	
       949.095	     1.99203e+06	
       949.153	     2.33251e+06	
       949.230	     2.92876e+06	
       949.258	     3.14151e+06	
       949.269	     3.21771e+06	
       949.280	     3.29409e+06	
       949.330	     3.63690e+06	
       949.360	     3.83978e+06	
       949.430	     4.31017e+06	
       949.500	     4.77051e+06	
       949.640	     5.65204e+06	
       949.781	     6.47470e+06	
       949.795	     6.55424e+06	
       949.879	     7.02931e+06	
       949.921	     7.25988e+06	
       949.963	     7.48604e+06	
       950.131	     8.35431e+06	
       950.299	     9.16475e+06	
       950.467	     9.91945e+06	
       950.635	     1.06344e+07	
       950.719	     1.09805e+07	
       950.804	     1.13177e+07	
       950.888	     1.16473e+07	
       951.056	     1.22882e+07	
       951.224	     1.29094e+07	
       951.392	     1.35163e+07	
       951.728	     1.47224e+07	
       952.065	     1.59808e+07	
       952.401	     1.72380e+07	
       952.738	     1.84850e+07	
       953.075	     1.97930e+07	
       953.413	     2.11061e+07	
       953.750	     2.24275e+07	
       954.087	     2.36929e+07	
       954.425	     2.48600e+07	
       954.593	     2.54202e+07	
       954.762	     2.59659e+07	
       954.930	     2.64591e+07	
       955.099	     2.69147e+07	
       955.267	     2.73602e+07	
       955.437	     2.77947e+07	
       955.534	     2.80405e+07	
       955.774	     2.86349e+07	
       956.014	     2.91905e+07	
       956.494	     3.03077e+07	
       956.975	     3.13513e+07	
       957.455	     3.23229e+07	
       957.543	     3.24922e+07	
       957.936	     3.32139e+07	
       957.980	     3.32915e+07	
       958.416	     3.40282e+07	
       958.852	     3.46954e+07	
       959.289	     3.52782e+07	
       959.725	     3.57648e+07	
       959.893	     3.59295e+07	
       960.162	     3.61641e+07	
       960.430	     3.63605e+07	
       960.966	     3.66775e+07	
       961.234	     3.67711e+07	
       961.503	     3.68201e+07	
       961.771	     3.68204e+07	
       962.039	     3.67730e+07	
       962.307	     3.66731e+07	
       962.576	     3.65213e+07	
       962.844	     3.63146e+07	
       963.112	     3.60476e+07	
       963.380	     3.57287e+07	
       963.648	     3.53514e+07	
       963.917	     3.49194e+07	
       964.047	     3.46923e+07	
       964.139	     3.45214e+07	
       964.185	     3.44331e+07	
       964.231	     3.43436e+07	
       964.415	     3.39776e+07	
       964.783	     3.31749e+07	
       965.152	     3.22777e+07	
       965.520	     3.12984e+07	
       965.888	     3.02426e+07	
       966.257	     2.91211e+07	
       966.625	     2.79586e+07	
       966.691	     2.77468e+07	
       966.993	     2.67394e+07	
       967.361	     2.54967e+07	
       967.697	     2.43361e+07	
       968.032	     2.31592e+07	
       968.108	     2.28837e+07	
       968.367	     2.19418e+07	
       968.405	     2.18029e+07	
       968.703	     2.07052e+07	
       969.000	     1.95748e+07	
       969.297	     1.84103e+07	
       969.594	     1.71892e+07	
       969.786	     1.63662e+07	
       969.856	     1.60582e+07	
       969.892	     1.59024e+07	
       969.927	     1.57452e+07	
       970.067	     1.50984e+07	
       970.207	     1.44235e+07	
       970.347	     1.37191e+07	
       970.380	     1.35465e+07	
       970.487	     1.29772e+07	
       970.504	     1.28860e+07	
       970.627	     1.21903e+07	
       970.751	     1.14445e+07	
       970.874	     1.06525e+07	
       970.895	     1.05155e+07	
       970.997	     9.81019e+06	
       971.008	     9.73680e+06	
       971.121	     8.89809e+06	
       971.235	     7.99074e+06	
       971.348	     7.00010e+06	
       971.461	     5.91967e+06	
       971.535	     5.16990e+06	
       971.563	     4.87468e+06	
       971.567	     4.83654e+06	
       971.574	     4.76105e+06	
       971.585	     4.64777e+06	
       971.635	     4.11784e+06	
       971.644	     4.02143e+06	
       971.703	     3.39251e+06	
       971.732	     3.07928e+06	
       971.762	     2.77115e+06	
       971.778	     2.62401e+06	
       971.792	     2.52200e+06	
       971.806	     2.46492e+06	
       971.821	     2.45535e+06	
       971.827	     2.45549e+06	
       971.833	     2.45564e+06	
       971.836	     2.45570e+06	
       971.839	     2.45578e+06	
       971.851	     2.45606e+06	
       971.866	     2.45828e+06	
       971.880	     2.49273e+06	
       971.910	     2.71644e+06	
       971.969	     3.33587e+06	
       972.037	     4.06773e+06	
       972.087	     4.60463e+06	
       972.137	     5.13289e+06	
       972.150	     5.26836e+06	
       972.237	     6.15259e+06	
       972.324	     6.98750e+06	
       972.499	     8.48657e+06	
       972.548	     8.86887e+06	
       972.673	     9.78107e+06	
       972.798	     1.06131e+07	
       972.923	     1.13772e+07	
       973.048	     1.20790e+07	
       973.173	     1.27286e+07	
       973.298	     1.33359e+07	
       973.423	     1.39133e+07	
       973.548	     1.44611e+07	
       973.601	     1.46863e+07	
       973.673	     1.49860e+07	
       973.746	     1.52801e+07	
       973.890	     1.58537e+07	
       974.034	     1.64007e+07	
       974.178	     1.69261e+07	
       974.466	     1.79610e+07	
       974.754	     1.89595e+07	
       975.043	     1.99137e+07	
       975.331	     2.08743e+07	
       975.556	     2.15468e+07	
       975.598	     2.16728e+07	
       975.619	     2.17361e+07	
       975.640	     2.17995e+07	
       975.724	     2.20539e+07	
       975.892	     2.25685e+07	
       976.228	     2.35688e+07	
       976.565	     2.46057e+07	
       976.733	     2.51529e+07	
       976.901	     2.57267e+07	
       977.069	     2.63331e+07	
       977.237	     2.69780e+07	
       977.405	     2.75814e+07	
       977.574	     2.81731e+07	
       977.910	     2.94544e+07	
       978.246	     3.07200e+07	
       978.414	     3.13874e+07	
       978.582	     3.20986e+07	
       978.750	     3.28664e+07	
       978.919	     3.36930e+07	
       979.087	     3.45918e+07	
       979.105	     3.46932e+07	
       979.205	     3.52716e+07	
       979.255	     3.55745e+07	
       979.305	     3.58861e+07	
       979.505	     3.70032e+07	
       979.705	     3.82388e+07	
       979.905	     3.96145e+07	
       980.105	     4.08156e+07	
       980.306	     4.19189e+07	
       980.506	     4.30951e+07	
       980.906	     4.52358e+07	
       981.306	     4.72605e+07	
       981.707	     4.92388e+07	
       982.507	     5.30800e+07	
       982.692	     5.39597e+07	
       983.308	     5.69043e+07	
       983.923	     6.00720e+07	
