# Koester WD models
# teff = 17250 K (value for the effective temperature for the model. Temperatures are given in K)
# logg = 8.25 log(cm/s2) (value for Log(G) for the model.)
#
#   WAVELENGTH	#           FLUX	
#   (ANGSTROM)	#  (ERG/CM2/S/A)	
##############	################	
       899.247	     1.64156e+06	
       899.347	     1.64321e+06	
       899.547	     1.64651e+06	
       899.947	     1.65313e+06	
       900.465	     1.66170e+06	
       900.748	     1.66642e+06	
       902.350	     1.69323e+06	
       904.235	     1.72520e+06	
       906.770	     1.76888e+06	
       908.005	     1.79046e+06	
       908.450	     1.79826e+06	
       909.241	     1.81221e+06	
       910.032	     1.82622e+06	
       911.193	     1.84705e+06	
       911.613	     1.85456e+06	
       911.824	     1.85828e+06	
       911.929	     1.86012e+06	
       912.034	     1.86196e+06	
       912.139	     1.90267e+06	
       912.244	     1.94346e+06	
       912.349	     1.98398e+06	
       912.454	     2.02442e+06	
       912.559	     2.06461e+06	
       912.664	     2.10435e+06	
       912.770	     2.14349e+06	
       912.875	     2.18164e+06	
       912.886	     2.18549e+06	
       912.980	     2.21601e+06	
       913.085	     2.23915e+06	
       913.284	     2.24817e+06	
       913.433	     2.24429e+06	
       913.483	     2.23891e+06	
       913.533	     2.24111e+06	
       913.633	     2.25586e+06	
       913.645	     2.25416e+06	
       913.734	     2.22085e+06	
       913.822	     2.18942e+06	
       913.831	     2.19108e+06	
       913.998	     2.24647e+06	
       914.165	     2.05747e+06	
       914.332	     2.27676e+06	
       914.423	     2.19900e+06	
       914.499	     1.97898e+06	
       914.575	     1.85967e+06	
       914.728	     2.24603e+06	
       914.880	     2.26088e+06	
       914.982	     1.86499e+06	
       915.032	     1.68526e+06	
       915.082	     1.64151e+06	
       915.182	     1.98221e+06	
       915.282	     2.40014e+06	
       915.382	     2.50460e+06	
       915.482	     2.25120e+06	
       915.522	     2.06104e+06	
       915.583	     1.74030e+06	
       915.593	     1.68281e+06	
       915.643	     1.48121e+06	
       915.693	     1.44881e+06	
       915.793	     1.87737e+06	
       915.893	     2.43999e+06	
       915.993	     2.75934e+06	
       916.093	     2.77033e+06	
       916.193	     2.46489e+06	
       916.293	     1.89875e+06	
       916.343	     1.57718e+06	
       916.393	     1.34204e+06	
       916.443	     1.29668e+06	
       916.544	     1.76398e+06	
       916.644	     2.43760e+06	
       916.744	     2.94456e+06	
       916.844	     3.21998e+06	
       916.944	     3.23948e+06	
       917.044	     2.99355e+06	
       917.144	     2.50345e+06	
       917.244	     1.83062e+06	
       917.294	     1.46947e+06	
       917.344	     1.22548e+06	
       917.394	     1.18836e+06	
       917.495	     1.70114e+06	
       917.595	     2.44291e+06	
       917.695	     3.06283e+06	
       917.795	     3.53457e+06	
       917.895	     3.82250e+06	
       917.995	     3.91226e+06	
       918.095	     3.80161e+06	
       918.195	     3.47291e+06	
       918.295	     2.98759e+06	
       918.395	     2.35225e+06	
       918.496	     1.56507e+06	
       918.546	     1.23640e+06	
       918.596	     1.10819e+06	
       918.646	     1.18367e+06	
       918.746	     1.88360e+06	
       918.846	     2.63713e+06	
       918.946	     3.28155e+06	
       919.046	     3.85307e+06	
       919.146	     4.30414e+06	
       919.196	     4.47067e+06	
       919.246	     4.60470e+06	
       919.296	     4.69847e+06	
       919.397	     4.77488e+06	
       919.497	     4.72621e+06	
       919.597	     4.52898e+06	
       919.697	     4.19371e+06	
       919.797	     3.72175e+06	
       919.897	     3.14813e+06	
       919.997	     2.47147e+06	
       920.097	     1.64303e+06	
       920.147	     1.25535e+06	
       920.197	     1.07920e+06	
       920.247	     1.10165e+06	
       920.347	     1.77487e+06	
       920.448	     2.58434e+06	
       920.548	     3.27568e+06	
       920.648	     3.89281e+06	
       920.748	     4.43825e+06	
       920.848	     4.89997e+06	
       920.948	     5.26738e+06	
       921.048	     5.53593e+06	
       921.148	     5.71892e+06	
       921.248	     5.81006e+06	
       921.349	     5.82687e+06	
       921.449	     5.75967e+06	
       921.549	     5.60316e+06	
       921.649	     5.35305e+06	
       921.749	     5.00852e+06	
       921.849	     4.57589e+06	
       921.949	     4.07452e+06	
       922.049	     3.47369e+06	
       922.149	     2.79410e+06	
       922.249	     1.99894e+06	
       922.294	     1.57111e+06	
       922.350	     1.15837e+06	
       922.405	     1.06293e+06	
       922.515	     1.57491e+06	
       922.625	     2.55078e+06	
       922.660	     2.81098e+06	
       922.735	     3.34319e+06	
       922.810	     3.83325e+06	
       922.960	     4.69231e+06	
       923.110	     5.43907e+06	
       923.260	     6.05517e+06	
       923.411	     6.54655e+06	
       923.561	     6.90346e+06	
       923.711	     7.13899e+06	
       923.861	     7.26741e+06	
       924.011	     7.29613e+06	
       924.161	     7.21024e+06	
       924.312	     7.00079e+06	
       924.462	     6.65163e+06	
       924.612	     6.16481e+06	
       924.762	     5.58157e+06	
       924.912	     4.86718e+06	
       925.062	     4.03651e+06	
       925.212	     3.01484e+06	
       925.241	     2.78264e+06	
       925.363	     1.70845e+06	
       925.484	     1.08290e+06	
       925.605	     1.71290e+06	
       925.726	     2.79677e+06	
       925.847	     3.69216e+06	
       925.968	     4.45732e+06	
       926.089	     5.12570e+06	
       926.210	     5.73762e+06	
       926.282	     6.06079e+06	
       926.332	     6.28542e+06	
       926.382	     6.49980e+06	
       926.482	     6.92376e+06	
       926.682	     7.65232e+06	
       926.882	     8.22629e+06	
       927.082	     8.64918e+06	
       927.283	     8.96080e+06	
       927.483	     9.17772e+06	
       927.683	     9.29365e+06	
       927.883	     9.32004e+06	
       927.984	     9.29739e+06	
       928.083	     9.23613e+06	
       928.182	     9.13154e+06	
       928.381	     8.81003e+06	
       928.579	     8.33342e+06	
       928.777	     7.75370e+06	
       928.861	     7.50143e+06	
       928.975	     7.12384e+06	
       929.089	     6.70366e+06	
       929.145	     6.47721e+06	
       929.203	     6.22978e+06	
       929.261	     5.97434e+06	
       929.378	     5.41563e+06	
       929.444	     5.06692e+06	
       929.494	     4.79335e+06	
       929.544	     4.50407e+06	
       929.644	     3.86237e+06	
       929.694	     3.50504e+06	
       929.705	     3.42421e+06	
       929.744	     3.12510e+06	
       929.794	     2.69825e+06	
       929.827	     2.39732e+06	
       929.883	     1.84270e+06	
       929.889	     1.77822e+06	
       929.939	     1.27133e+06	
       929.989	     1.13396e+06	
       930.039	     1.13716e+06	
       930.089	     1.33178e+06	
       930.139	     1.86778e+06	
       930.189	     2.36772e+06	
       930.239	     2.82398e+06	
       930.289	     3.24583e+06	
       930.301	     3.33848e+06	
       930.390	     3.98046e+06	
       930.478	     4.55258e+06	
       930.654	     5.54639e+06	
       930.729	     5.92881e+06	
       930.830	     6.40703e+06	
       930.931	     6.85923e+06	
       931.032	     7.27678e+06	
       931.133	     7.66916e+06	
       931.234	     8.04091e+06	
       931.335	     8.43024e+06	
       931.437	     8.81424e+06	
       931.440	     8.82533e+06	
       931.639	     9.56178e+06	
       931.838	     1.02128e+07	
       932.037	     1.07621e+07	
       932.236	     1.11831e+07	
       932.436	     1.15449e+07	
       932.635	     1.18559e+07	
       932.834	     1.21057e+07	
       933.033	     1.22981e+07	
       933.061	     1.23216e+07	
       933.232	     1.24452e+07	
       933.265	     1.24651e+07	
       933.403	     1.25331e+07	
       933.432	     1.25431e+07	
       933.542	     1.25720e+07	
       933.652	     1.25837e+07	
       933.762	     1.25776e+07	
       933.872	     1.25526e+07	
       933.982	     1.24978e+07	
       934.092	     1.24083e+07	
       934.202	     1.22929e+07	
       934.312	     1.21505e+07	
       934.413	     1.19999e+07	
       934.422	     1.19860e+07	
       934.533	     1.18014e+07	
       934.652	     1.15714e+07	
       934.771	     1.13100e+07	
       934.890	     1.10216e+07	
       935.009	     1.07025e+07	
       935.026	     1.06544e+07	
       935.128	     1.03794e+07	
       935.230	     1.01265e+07	
       935.332	     9.85819e+06	
       935.434	     9.57573e+06	
       935.537	     9.27722e+06	
       935.639	     8.96318e+06	
       935.741	     8.63844e+06	
       935.746	     8.62198e+06	
       935.843	     8.29132e+06	
       935.945	     7.91820e+06	
       936.144	     7.11979e+06	
       936.343	     6.23575e+06	
       936.484	     5.51591e+06	
       936.542	     5.18624e+06	
       936.601	     4.83463e+06	
       936.605	     4.80956e+06	
       936.717	     4.04882e+06	
       936.829	     3.15378e+06	
       936.891	     2.56198e+06	
       936.941	     2.01994e+06	
       936.991	     1.40884e+06	
       937.041	     1.22312e+06	
       937.091	     1.22285e+06	
       937.141	     1.31797e+06	
       937.168	     1.58575e+06	
       937.191	     1.88276e+06	
       937.241	     2.44687e+06	
       937.314	     3.15997e+06	
       937.377	     3.69213e+06	
       937.460	     4.31561e+06	
       937.543	     4.87789e+06	
       937.710	     5.85279e+06	
       937.752	     6.07320e+06	
       937.876	     6.68110e+06	
       938.000	     7.24448e+06	
       938.124	     7.78301e+06	
       938.248	     8.28787e+06	
       938.372	     8.76181e+06	
       938.496	     9.20600e+06	
       938.620	     9.63913e+06	
       938.745	     1.00571e+07	
       938.819	     1.03014e+07	
       938.869	     1.04643e+07	
       938.919	     1.06256e+07	
       939.019	     1.09437e+07	
       939.167	     1.14850e+07	
       939.219	     1.16804e+07	
       939.271	     1.18735e+07	
       939.375	     1.22519e+07	
       939.583	     1.29924e+07	
       939.792	     1.36986e+07	
       940.000	     1.44151e+07	
       940.104	     1.47619e+07	
       940.208	     1.50993e+07	
       940.312	     1.53993e+07	
       940.416	     1.56911e+07	
       940.508	     1.59438e+07	
       940.624	     1.62569e+07	
       940.740	     1.65619e+07	
       940.973	     1.71170e+07	
       941.205	     1.76329e+07	
       941.437	     1.80790e+07	
       941.669	     1.84515e+07	
       941.901	     1.87879e+07	
       942.134	     1.90858e+07	
       942.366	     1.93335e+07	
       942.598	     1.95225e+07	
       942.613	     1.95330e+07	
       942.830	     1.96574e+07	
       943.048	     1.97304e+07	
       943.265	     1.97536e+07	
       943.482	     1.97049e+07	
       943.699	     1.95881e+07	
       943.916	     1.94013e+07	
       944.024	     1.92815e+07	
       944.134	     1.91287e+07	
       944.242	     1.89532e+07	
       944.351	     1.87578e+07	
       944.568	     1.83102e+07	
       944.697	     1.80091e+07	
       944.785	     1.77995e+07	
       944.849	     1.76509e+07	
       945.002	     1.72801e+07	
       945.154	     1.68837e+07	
       945.308	     1.64616e+07	
       945.613	     1.55683e+07	
       945.766	     1.50896e+07	
       945.918	     1.46132e+07	
       946.071	     1.41926e+07	
       946.223	     1.37662e+07	
       946.529	     1.29336e+07	
       947.089	     1.13583e+07	
       947.139	     1.12120e+07	
       947.189	     1.10638e+07	
       947.289	     1.07619e+07	
       947.490	     1.01310e+07	
       947.690	     9.45132e+06	
       947.697	     9.42625e+06	
       947.890	     8.69414e+06	
       948.083	     7.87154e+06	
       948.276	     6.95511e+06	
       948.393	     6.32758e+06	
       948.469	     5.87487e+06	
       948.546	     5.38406e+06	
       948.619	     4.86432e+06	
       948.661	     4.54607e+06	
       948.698	     4.24599e+06	
       948.777	     3.54796e+06	
       948.835	     2.94533e+06	
       948.893	     2.24280e+06	
       948.901	     2.13589e+06	
       948.951	     1.46171e+06	
       949.001	     1.38962e+06	
       949.049	     1.39035e+06	
       949.051	     1.39039e+06	
       949.101	     1.50531e+06	
       949.153	     2.24868e+06	
       949.207	     2.91099e+06	
       949.257	     3.44557e+06	
       949.307	     3.92215e+06	
       949.314	     3.98332e+06	
       949.407	     4.74871e+06	
       949.500	     5.43112e+06	
       949.687	     6.59489e+06	
       949.783	     7.11564e+06	
       949.873	     7.57102e+06	
       949.963	     8.00195e+06	
       950.143	     8.81113e+06	
       950.323	     9.54388e+06	
       950.503	     1.02128e+07	
       950.683	     1.08401e+07	
       950.814	     1.12757e+07	
       950.864	     1.14401e+07	
       950.914	     1.16032e+07	
       951.014	     1.19250e+07	
       951.214	     1.25639e+07	
       951.414	     1.31970e+07	
       951.614	     1.38296e+07	
       951.814	     1.44809e+07	
       952.015	     1.51646e+07	
       952.092	     1.54323e+07	
       952.215	     1.58951e+07	
       952.415	     1.67276e+07	
       952.738	     1.80861e+07	
       953.061	     1.94996e+07	
       953.223	     2.02255e+07	
       953.385	     2.10065e+07	
       953.546	     2.18404e+07	
       953.708	     2.26895e+07	
       953.869	     2.35541e+07	
       953.988	     2.41948e+07	
       954.031	     2.44229e+07	
       954.355	     2.61360e+07	
       954.495	     2.68907e+07	
       954.748	     2.82652e+07	
       955.001	     2.95592e+07	
       955.254	     3.07968e+07	
       955.508	     3.20081e+07	
       955.761	     3.31912e+07	
       956.014	     3.42358e+07	
       956.267	     3.52722e+07	
       956.520	     3.62867e+07	
       957.027	     3.82410e+07	
       957.533	     4.00704e+07	
       958.040	     4.17533e+07	
       958.546	     4.32707e+07	
       958.816	     4.39993e+07	
       959.053	     4.45817e+07	
       959.289	     4.51126e+07	
       959.525	     4.56134e+07	
       959.761	     4.60520e+07	
       959.997	     4.64340e+07	
       960.037	     4.64921e+07	
       960.234	     4.67488e+07	
       960.430	     4.69539e+07	
       960.626	     4.72342e+07	
       960.822	     4.74516e+07	
       961.018	     4.75998e+07	
       961.214	     4.76822e+07	
       961.411	     4.76979e+07	
       961.607	     4.76401e+07	
       961.803	     4.75119e+07	
       961.999	     4.73158e+07	
       962.195	     4.70494e+07	
       962.391	     4.67114e+07	
       962.588	     4.63093e+07	
       962.784	     4.58434e+07	
       962.980	     4.53002e+07	
       963.176	     4.47014e+07	
       963.568	     4.33405e+07	
       963.690	     4.28749e+07	
       963.961	     4.17863e+07	
       964.231	     4.06070e+07	
       964.501	     3.93645e+07	
       964.771	     3.80767e+07	
       965.042	     3.67394e+07	
       965.294	     3.54799e+07	
       965.582	     3.40077e+07	
       965.978	     3.19990e+07	
       966.321	     3.02855e+07	
       966.663	     2.86285e+07	
       967.005	     2.69975e+07	
       967.347	     2.54456e+07	
       967.690	     2.39452e+07	
       967.982	     2.27246e+07	
       968.032	     2.25167e+07	
       968.082	     2.23094e+07	
       968.182	     2.18987e+07	
       968.382	     2.10971e+07	
       968.783	     1.95416e+07	
       969.069	     1.84544e+07	
       969.124	     1.82468e+07	
       969.183	     1.80248e+07	
       969.297	     1.75956e+07	
       969.525	     1.67319e+07	
       969.726	     1.59677e+07	
       969.927	     1.51931e+07	
       970.127	     1.43952e+07	
       970.328	     1.35647e+07	
       970.428	     1.31311e+07	
       970.528	     1.26829e+07	
       970.584	     1.24270e+07	
       970.629	     1.22166e+07	
       970.729	     1.17211e+07	
       970.874	     1.09567e+07	
       971.019	     1.01201e+07	
       971.165	     9.17549e+06	
       971.260	     8.47646e+06	
       971.310	     8.07518e+06	
       971.360	     7.64651e+06	
       971.460	     6.68597e+06	
       971.510	     6.14316e+06	
       971.517	     6.06418e+06	
       971.560	     5.55600e+06	
       971.610	     4.91298e+06	
       971.644	     4.44212e+06	
       971.703	     3.55685e+06	
       971.712	     3.41372e+06	
       971.762	     2.58550e+06	
       971.812	     1.81742e+06	
       971.855	     1.75990e+06	
       971.862	     1.78662e+06	
       971.912	     2.52098e+06	
       971.969	     3.46992e+06	
       972.033	     4.44297e+06	
       972.083	     5.13226e+06	
       972.133	     5.76467e+06	
       972.142	     5.87267e+06	
       972.233	     6.87915e+06	
       972.324	     7.74858e+06	
       972.507	     9.18375e+06	
       972.580	     9.67541e+06	
       972.689	     1.03482e+07	
       972.798	     1.09575e+07	
       972.907	     1.15167e+07	
       973.016	     1.20337e+07	
       973.125	     1.25137e+07	
       973.234	     1.29653e+07	
       973.343	     1.33950e+07	
       973.377	     1.35258e+07	
       973.452	     1.38087e+07	
       973.561	     1.42068e+07	
       973.746	     1.48521e+07	
       973.930	     1.54781e+07	
       974.114	     1.60748e+07	
       974.482	     1.72586e+07	
       974.797	     1.82571e+07	
       975.219	     1.96014e+07	
       975.640	     2.08779e+07	
       976.061	     2.21891e+07	
       976.273	     2.28515e+07	
       976.483	     2.35496e+07	
       976.694	     2.42945e+07	
       976.904	     2.51000e+07	
       977.115	     2.59826e+07	
       977.325	     2.69339e+07	
       977.536	     2.78067e+07	
       977.747	     2.87549e+07	
       977.958	     2.97984e+07	
       978.168	     3.07791e+07	
       978.379	     3.18413e+07	
       978.589	     3.30071e+07	
       978.694	     3.36417e+07	
       978.800	     3.43188e+07	
       978.906	     3.50385e+07	
       979.011	     3.58060e+07	
       979.116	     3.66272e+07	
       979.138	     3.68041e+07	
       979.222	     3.75094e+07	
       979.305	     3.82599e+07	
       979.472	     3.96167e+07	
       979.639	     4.11203e+07	
       979.806	     4.28033e+07	
       979.973	     4.47061e+07	
       980.140	     4.61258e+07	
       980.308	     4.76419e+07	
       980.475	     4.92762e+07	
       980.642	     5.10455e+07	
       980.809	     5.24640e+07	
       980.976	     5.39000e+07	
       981.310	     5.69674e+07	
       981.645	     6.00098e+07	
       982.313	     6.63881e+07	
       982.647	     6.96372e+07	
       982.982	     7.30191e+07	
       983.316	     7.65779e+07	
       983.377	     7.72574e+07	
       983.650	     8.04854e+07	
       983.923	     8.39022e+07	
       984.197	     8.73721e+07	
       984.743	     9.44281e+07	
       985.053	     9.82483e+07	
       985.836	     1.08628e+08	
       986.227	     1.14078e+08	
       986.423	     1.16778e+08	
       986.618	     1.19523e+08	
       986.813	     1.21909e+08	
       987.010	     1.23403e+08	
       987.205	     1.24851e+08	
       987.401	     1.26269e+08	
       987.792	     1.28812e+08	
       987.987	     1.30000e+08	
       988.183	     1.31452e+08	
       988.379	     1.33747e+08	
       988.575	     1.36029e+08	
       988.620	     1.36556e+08	
       988.770	     1.38322e+08	
       988.793	     1.38587e+08	
       988.966	     1.39969e+08	
       989.139	     1.41243e+08	
       989.312	     1.42488e+08	
       989.485	     1.43656e+08	
       989.658	     1.43597e+08	
       989.832	     1.43362e+08	
       990.005	     1.43080e+08	
       990.351	     1.42983e+08	
       990.524	     1.43275e+08	
       990.697	     1.43529e+08	
       990.870	     1.43747e+08	
       991.043	     1.45287e+08	
       991.217	     1.46938e+08	
       991.390	     1.48581e+08	
       991.563	     1.50214e+08	
       991.736	     1.53035e+08	
       991.909	     1.55873e+08	
       992.082	     1.58731e+08	
       992.255	     1.61669e+08	
       992.428	     1.65823e+08	
