# Koester WD models
# teff = 17500 K (value for the effective temperature for the model. Temperatures are given in K)
# logg = 8.5 log(cm/s2) (value for Log(G) for the model.)
#
#   WAVELENGTH	#           FLUX	
#   (ANGSTROM)	#  (ERG/CM2/S/A)	
##############	################	
       899.230	     2.01949e+06	
       904.235	     2.12051e+06	
       908.450	     2.20835e+06	
       909.241	     2.22511e+06	
       910.032	     2.24193e+06	
       911.193	     2.26682e+06	
       911.613	     2.27579e+06	
       911.824	     2.28023e+06	
       911.929	     2.28244e+06	
       912.034	     2.28463e+06	
       912.139	     2.32396e+06	
       912.244	     2.36308e+06	
       912.349	     2.40198e+06	
       912.454	     2.44057e+06	
       912.559	     2.47883e+06	
       912.664	     2.51673e+06	
       912.770	     2.55440e+06	
       912.875	     2.59059e+06	
       912.886	     2.59425e+06	
       912.980	     2.62369e+06	
       913.085	     2.64967e+06	
       913.284	     2.68148e+06	
       913.339	     2.68600e+06	
       913.435	     2.69062e+06	
       913.483	     2.69469e+06	
       913.531	     2.70027e+06	
       913.625	     2.70640e+06	
       913.724	     2.69391e+06	
       913.822	     2.68591e+06	
       913.871	     2.69349e+06	
       914.018	     2.68796e+06	
       914.165	     2.59581e+06	
       914.312	     2.70123e+06	
       914.343	     2.71080e+06	
       914.459	     2.57603e+06	
       914.575	     2.41735e+06	
       914.692	     2.60063e+06	
       914.808	     2.74456e+06	
       914.924	     2.53885e+06	
       915.009	     2.26150e+06	
       915.040	     2.19052e+06	
       915.071	     2.16781e+06	
       915.133	     2.27413e+06	
       915.257	     2.70739e+06	
       915.381	     2.84959e+06	
       915.505	     2.50731e+06	
       915.609	     2.04828e+06	
       915.617	     2.02147e+06	
       915.630	     1.97439e+06	
       915.643	     1.94100e+06	
       915.677	     1.90342e+06	
       915.745	     2.06389e+06	
       915.881	     2.75292e+06	
       916.017	     3.12102e+06	
       916.153	     2.94988e+06	
       916.289	     2.28870e+06	
       916.379	     1.78512e+06	
       916.421	     1.68953e+06	
       916.425	     1.68771e+06	
       916.429	     1.68718e+06	
       916.479	     1.79019e+06	
       916.580	     2.38280e+06	
       916.680	     2.99146e+06	
       916.780	     3.41727e+06	
       916.880	     3.60636e+06	
       916.980	     3.51588e+06	
       917.080	     3.17263e+06	
       917.180	     2.60664e+06	
       917.182	     2.59316e+06	
       917.280	     1.90059e+06	
       917.378	     1.51286e+06	
       917.575	     2.63295e+06	
       917.771	     3.79696e+06	
       917.967	     4.29544e+06	
       918.163	     3.96227e+06	
       918.359	     2.89006e+06	
       918.510	     1.75908e+06	
       918.556	     1.48414e+06	
       918.602	     1.39227e+06	
       918.694	     1.76325e+06	
       918.878	     3.17445e+06	
       919.062	     4.33166e+06	
       919.201	     4.92413e+06	
       919.241	     5.04050e+06	
       919.246	     5.05325e+06	
       919.251	     5.06560e+06	
       919.301	     5.16267e+06	
       919.402	     5.23807e+06	
       919.502	     5.17565e+06	
       919.602	     4.94741e+06	
       919.702	     4.56781e+06	
       919.802	     4.05309e+06	
       919.902	     3.42807e+06	
       920.002	     2.70867e+06	
       920.102	     1.86203e+06	
       920.165	     1.42185e+06	
       920.189	     1.34823e+06	
       920.202	     1.32838e+06	
       920.215	     1.32225e+06	
       920.265	     1.42344e+06	
       920.366	     2.20207e+06	
       920.466	     3.00315e+06	
       920.566	     3.71770e+06	
       920.666	     4.38727e+06	
       920.766	     4.96139e+06	
       920.866	     5.46656e+06	
       920.966	     5.85945e+06	
       921.066	     6.15240e+06	
       921.166	     6.34828e+06	
       921.266	     6.44011e+06	
       921.367	     6.44158e+06	
       921.467	     6.34316e+06	
       921.567	     6.13525e+06	
       921.667	     5.82850e+06	
       921.767	     5.41978e+06	
       921.867	     4.91713e+06	
       921.967	     4.34699e+06	
       922.067	     3.67972e+06	
       922.167	     2.93065e+06	
       922.267	     2.08479e+06	
       922.331	     1.52069e+06	
       922.368	     1.33983e+06	
       922.405	     1.29600e+06	
       922.479	     1.52316e+06	
       922.627	     2.83068e+06	
       922.740	     3.69945e+06	
       922.775	     3.94537e+06	
       922.810	     4.19632e+06	
       922.880	     4.65606e+06	
       923.020	     5.49575e+06	
       923.160	     6.23795e+06	
       923.301	     6.87371e+06	
       923.441	     7.38255e+06	
       923.581	     7.75508e+06	
       923.721	     8.00022e+06	
       923.861	     8.13449e+06	
       924.001	     8.16591e+06	
       924.141	     8.08322e+06	
       924.282	     7.87525e+06	
       924.422	     7.52996e+06	
       924.562	     7.03355e+06	
       924.702	     6.43034e+06	
       924.842	     5.73416e+06	
       924.982	     4.91929e+06	
       925.122	     3.98772e+06	
       925.262	     2.87616e+06	
       925.322	     2.33878e+06	
       925.403	     1.56816e+06	
       925.484	     1.30804e+06	
       925.646	     2.34673e+06	
       925.808	     3.74104e+06	
       925.970	     4.88546e+06	
       926.132	     5.88537e+06	
       926.220	     6.38111e+06	
       926.295	     6.77340e+06	
       926.369	     7.15894e+06	
       926.517	     7.88376e+06	
       926.665	     8.50599e+06	
       926.813	     9.03164e+06	
       926.961	     9.46505e+06	
       927.109	     9.80541e+06	
       927.257	     1.00783e+07	
       927.406	     1.02876e+07	
       927.554	     1.04294e+07	
       927.702	     1.05129e+07	
       927.850	     1.05372e+07	
       927.998	     1.05012e+07	
       928.038	     1.04775e+07	
       928.110	     1.04073e+07	
       928.146	     1.03643e+07	
       928.182	     1.03158e+07	
       928.327	     1.00637e+07	
       928.471	     9.72144e+06	
       928.615	     9.28617e+06	
       928.717	     8.92941e+06	
       928.759	     8.76903e+06	
       928.903	     8.24819e+06	
       928.917	     8.19315e+06	
       929.089	     7.45880e+06	
       929.261	     6.59766e+06	
       929.325	     6.25761e+06	
       929.434	     5.61732e+06	
       929.543	     4.93183e+06	
       929.652	     4.15963e+06	
       929.719	     3.63165e+06	
       929.753	     3.34306e+06	
       929.755	     3.32528e+06	
       929.761	     3.27112e+06	
       929.769	     3.19880e+06	
       929.819	     2.73268e+06	
       929.827	     2.65443e+06	
       929.883	     2.08393e+06	
       929.910	     1.78794e+06	
       929.939	     1.51375e+06	
       929.954	     1.42745e+06	
       929.968	     1.38387e+06	
       929.982	     1.36682e+06	
       929.996	     1.36147e+06	
       930.010	     1.36051e+06	
       930.024	     1.36189e+06	
       930.038	     1.36766e+06	
       930.052	     1.38515e+06	
       930.081	     1.51607e+06	
       930.137	     2.08948e+06	
       930.201	     2.74332e+06	
       930.247	     3.17750e+06	
       930.249	     3.19591e+06	
       930.251	     3.21432e+06	
       930.301	     3.65276e+06	
       930.326	     3.84842e+06	
       930.402	     4.44033e+06	
       930.478	     4.97836e+06	
       930.630	     5.95549e+06	
       930.633	     5.97405e+06	
       930.782	     6.83595e+06	
       930.931	     7.63473e+06	
       931.080	     8.35397e+06	
       931.229	     9.01474e+06	
       931.379	     9.69467e+06	
       931.516	     1.02935e+07	
       931.528	     1.03450e+07	
       931.677	     1.09446e+07	
       931.838	     1.15334e+07	
       931.999	     1.20582e+07	
       932.160	     1.24683e+07	
       932.321	     1.28373e+07	
       932.483	     1.31592e+07	
       932.644	     1.34447e+07	
       932.805	     1.36782e+07	
       932.966	     1.38624e+07	
       933.127	     1.40121e+07	
       933.173	     1.40486e+07	
       933.265	     1.41130e+07	
       933.288	     1.41273e+07	
       933.403	     1.41870e+07	
       933.432	     1.41979e+07	
       933.542	     1.42283e+07	
       933.652	     1.42389e+07	
       933.762	     1.42288e+07	
       933.872	     1.41970e+07	
       933.982	     1.41336e+07	
       934.092	     1.40341e+07	
       934.202	     1.39055e+07	
       934.312	     1.37462e+07	
       934.413	     1.35791e+07	
       934.422	     1.35639e+07	
       934.533	     1.33618e+07	
       934.652	     1.31085e+07	
       934.771	     1.28184e+07	
       934.890	     1.24960e+07	
       935.009	     1.21363e+07	
       935.026	     1.20819e+07	
       935.128	     1.17666e+07	
       935.230	     1.14722e+07	
       935.332	     1.11597e+07	
       935.434	     1.08320e+07	
       935.537	     1.04863e+07	
       935.639	     1.01201e+07	
       935.741	     9.73708e+06	
       935.843	     9.32811e+06	
       935.945	     8.88788e+06	
       935.950	     8.86554e+06	
       936.047	     8.41761e+06	
       936.144	     7.94135e+06	
       936.338	     6.92036e+06	
       936.464	     6.18454e+06	
       936.532	     5.75254e+06	
       936.601	     5.29110e+06	
       936.645	     4.97594e+06	
       936.714	     4.44875e+06	
       936.737	     4.26361e+06	
       936.829	     3.46188e+06	
       936.887	     2.87639e+06	
       936.944	     2.23999e+06	
       936.973	     1.87699e+06	
       937.001	     1.58267e+06	
       937.015	     1.50679e+06	
       937.029	     1.47384e+06	
       937.043	     1.46595e+06	
       937.058	     1.46458e+06	
       937.072	     1.46449e+06	
       937.086	     1.46502e+06	
       937.101	     1.46686e+06	
       937.115	     1.47520e+06	
       937.143	     1.58507e+06	
       937.150	     1.64031e+06	
       937.186	     2.07176e+06	
       937.199	     2.23461e+06	
       937.250	     2.81236e+06	
       937.314	     3.46879e+06	
       937.341	     3.72480e+06	
       937.442	     4.57626e+06	
       937.543	     5.33797e+06	
       937.645	     6.02900e+06	
       937.746	     6.66275e+06	
       937.847	     7.24646e+06	
       937.896	     7.52078e+06	
       937.948	     7.80482e+06	
       938.000	     8.08049e+06	
       938.104	     8.61846e+06	
       938.208	     9.12752e+06	
       938.312	     9.60944e+06	
       938.416	     1.00632e+07	
       938.520	     1.04962e+07	
       938.543	     1.05904e+07	
       938.556	     1.06438e+07	
       938.624	     1.09190e+07	
       938.729	     1.13262e+07	
       938.914	     1.20304e+07	
       939.271	     1.34693e+07	
       939.628	     1.48685e+07	
       939.807	     1.55285e+07	
       939.986	     1.62023e+07	
       940.164	     1.68494e+07	
       940.343	     1.74329e+07	
       940.521	     1.79799e+07	
       940.580	     1.81536e+07	
       940.660	     1.83868e+07	
       940.700	     1.85016e+07	
       940.740	     1.86146e+07	
       940.901	     1.90294e+07	
       941.061	     1.94209e+07	
       941.221	     1.97894e+07	
       941.381	     2.01242e+07	
       941.541	     2.04050e+07	
       941.701	     2.06679e+07	
       941.861	     2.09125e+07	
       942.182	     2.13462e+07	
       942.502	     2.16765e+07	
       942.597	     2.17540e+07	
       942.822	     2.19009e+07	
       943.048	     2.19932e+07	
       943.273	     2.20281e+07	
       943.498	     2.19797e+07	
       943.723	     2.18549e+07	
       943.948	     2.16497e+07	
       944.174	     2.13458e+07	
       944.399	     2.09413e+07	
       944.624	     2.04459e+07	
       944.841	     1.99142e+07	
       944.849	     1.98947e+07	
       945.074	     1.93093e+07	
       945.308	     1.86350e+07	
       945.541	     1.79183e+07	
       945.774	     1.71438e+07	
       946.007	     1.63754e+07	
       946.474	     1.48984e+07	
       946.722	     1.41115e+07	
       946.940	     1.33994e+07	
       947.158	     1.26589e+07	
       947.267	     1.22753e+07	
       947.376	     1.18795e+07	
       947.486	     1.14688e+07	
       947.595	     1.10400e+07	
       947.704	     1.05890e+07	
       947.813	     1.01108e+07	
       947.922	     9.59656e+06	
       947.979	     9.31413e+06	
       948.031	     9.04810e+06	
       948.083	     8.77425e+06	
       948.187	     8.20370e+06	
       948.291	     7.59945e+06	
       948.395	     6.94732e+06	
       948.453	     6.55741e+06	
       948.498	     6.24137e+06	
       948.499	     6.23421e+06	
       948.546	     5.89353e+06	
       948.638	     5.16478e+06	
       948.661	     4.96906e+06	
       948.777	     3.89488e+06	
       948.835	     3.25180e+06	
       948.893	     2.52194e+06	
       948.922	     2.09144e+06	
       948.951	     1.74160e+06	
       948.966	     1.67738e+06	
       948.980	     1.66219e+06	
       948.994	     1.66075e+06	
       949.009	     1.66090e+06	
       949.023	     1.66113e+06	
       949.037	     1.66138e+06	
       949.052	     1.66175e+06	
       949.066	     1.66368e+06	
       949.095	     1.74420e+06	
       949.153	     2.52846e+06	
       949.230	     3.48239e+06	
       949.258	     3.79756e+06	
       949.269	     3.91307e+06	
       949.280	     4.02768e+06	
       949.330	     4.50919e+06	
       949.360	     4.78198e+06	
       949.430	     5.38544e+06	
       949.500	     5.94452e+06	
       949.640	     6.95715e+06	
       949.781	     7.85671e+06	
       949.795	     7.94113e+06	
       949.879	     8.44115e+06	
       949.921	     8.68157e+06	
       949.963	     8.91769e+06	
       950.131	     9.81481e+06	
       950.299	     1.06325e+07	
       950.467	     1.13794e+07	
       950.635	     1.20783e+07	
       950.719	     1.24147e+07	
       950.804	     1.27438e+07	
       950.888	     1.30676e+07	
       951.056	     1.37022e+07	
       951.392	     1.49458e+07	
       951.728	     1.61770e+07	
       951.896	     1.68387e+07	
       952.065	     1.75077e+07	
       952.233	     1.82200e+07	
       952.401	     1.89842e+07	
       952.569	     1.97473e+07	
       952.688	     2.02883e+07	
       952.737	     2.05180e+07	
       952.788	     2.07579e+07	
       952.888	     2.12317e+07	
       953.089	     2.21876e+07	
       953.289	     2.31583e+07	
       953.489	     2.42353e+07	
       953.689	     2.53295e+07	
       953.889	     2.64353e+07	
       954.290	     2.86175e+07	
       954.490	     2.97048e+07	
       954.690	     3.07881e+07	
       954.890	     3.18287e+07	
       954.967	     3.21950e+07	
       955.090	     3.27747e+07	
       955.229	     3.34181e+07	
       955.491	     3.46053e+07	
       955.753	     3.57564e+07	
       956.014	     3.67918e+07	
       956.537	     3.88172e+07	
       957.061	     4.07298e+07	
       957.584	     4.25117e+07	
       957.974	     4.37351e+07	
       958.108	     4.41353e+07	
       958.302	     4.46986e+07	
       958.631	     4.55990e+07	
       958.960	     4.64167e+07	
       959.289	     4.71437e+07	
       959.463	     4.75034e+07	
       959.618	     4.77978e+07	
       959.946	     4.83494e+07	
       960.430	     4.89554e+07	
       960.671	     4.92793e+07	
       960.913	     4.95187e+07	
       961.154	     4.96702e+07	
       961.397	     4.97355e+07	
       961.638	     4.97063e+07	
       961.880	     4.95856e+07	
       962.121	     4.93745e+07	
       962.363	     4.90648e+07	
       962.605	     4.86674e+07	
       962.847	     4.81763e+07	
       963.088	     4.75870e+07	
       963.330	     4.69178e+07	
       963.571	     4.61651e+07	
       963.814	     4.53398e+07	
       963.880	     4.51029e+07	
       964.055	     4.44491e+07	
       964.231	     4.37464e+07	
       964.582	     4.22651e+07	
       964.934	     4.06720e+07	
       965.285	     3.90063e+07	
       965.348	     3.87022e+07	
       965.636	     3.72602e+07	
       965.987	     3.54959e+07	
       966.019	     3.53379e+07	
       966.690	     3.19632e+07	
       967.025	     3.02881e+07	
       967.361	     2.86713e+07	
       967.697	     2.70868e+07	
       968.032	     2.55574e+07	
       968.109	     2.52062e+07	
       968.367	     2.40500e+07	
       968.703	     2.25888e+07	
       969.297	     2.00441e+07	
       969.784	     1.79150e+07	
       969.855	     1.75969e+07	
       969.892	     1.74366e+07	
       969.927	     1.72750e+07	
       970.069	     1.66187e+07	
       970.211	     1.59441e+07	
       970.353	     1.52451e+07	
       970.400	     1.50064e+07	
       970.495	     1.45132e+07	
       970.518	     1.43884e+07	
       970.637	     1.37393e+07	
       970.755	     1.30374e+07	
       970.874	     1.22924e+07	
       970.875	     1.22859e+07	
       970.993	     1.14872e+07	
       971.111	     1.06053e+07	
       971.230	     9.62571e+06	
       971.348	     8.51874e+06	
       971.466	     7.24282e+06	
       971.535	     6.39763e+06	
       971.567	     5.97245e+06	
       971.583	     5.75398e+06	
       971.584	     5.74010e+06	
       971.585	     5.72618e+06	
       971.635	     5.00405e+06	
       971.644	     4.86846e+06	
       971.703	     3.93365e+06	
       971.732	     3.44504e+06	
       971.762	     2.92455e+06	
       971.778	     2.64231e+06	
       971.792	     2.40704e+06	
       971.806	     2.20451e+06	
       971.821	     2.09536e+06	
       971.827	     2.09116e+06	
       971.833	     2.09125e+06	
       971.836	     2.09131e+06	
       971.839	     2.09137e+06	
       971.851	     2.09165e+06	
       971.866	     2.14391e+06	
       971.880	     2.31532e+06	
       971.910	     2.82125e+06	
       971.969	     3.84229e+06	
       972.037	     4.93098e+06	
       972.087	     5.66593e+06	
       972.137	     6.34916e+06	
       972.150	     6.51874e+06	
       972.237	     7.57495e+06	
       972.324	     8.51026e+06	
       972.499	     1.01137e+07	
       972.548	     1.05122e+07	
       972.673	     1.14431e+07	
       972.798	     1.22791e+07	
       972.923	     1.30320e+07	
       973.048	     1.37209e+07	
       973.173	     1.43548e+07	
       973.298	     1.49444e+07	
       973.423	     1.55074e+07	
       973.548	     1.60446e+07	
       973.601	     1.62659e+07	
       973.673	     1.65616e+07	
       973.746	     1.68524e+07	
       973.890	     1.74241e+07	
       974.178	     1.85117e+07	
       974.466	     1.95802e+07	
       975.043	     2.16572e+07	
       975.556	     2.34623e+07	
       975.598	     2.36049e+07	
       975.619	     2.36765e+07	
       975.640	     2.37482e+07	
       975.724	     2.40376e+07	
       975.892	     2.46294e+07	
       976.228	     2.58023e+07	
       976.397	     2.64117e+07	
       976.565	     2.70477e+07	
       976.733	     2.77179e+07	
       976.901	     2.84303e+07	
       977.069	     2.91917e+07	
       977.237	     3.00153e+07	
       977.574	     3.15664e+07	
       977.910	     3.32726e+07	
       978.078	     3.41284e+07	
       978.246	     3.49923e+07	
       978.414	     3.59156e+07	
       978.582	     3.69077e+07	
       978.750	     3.79935e+07	
       978.919	     3.91860e+07	
       979.087	     4.04995e+07	
       979.105	     4.06484e+07	
       979.205	     4.15102e+07	
       979.255	     4.19635e+07	
       979.305	     4.24325e+07	
       979.505	     4.41171e+07	
       979.705	     4.60127e+07	
       979.905	     4.81726e+07	
       980.105	     5.00943e+07	
       980.306	     5.18862e+07	
       980.506	     5.38343e+07	
       980.706	     5.58079e+07	
       980.906	     5.74503e+07	
       981.106	     5.91688e+07	
       981.506	     6.27027e+07	
       982.307	     6.99008e+07	
       982.707	     7.35535e+07	
       983.108	     7.73492e+07	
       983.508	     8.14188e+07	
       983.863	     8.53640e+07	
       983.893	     8.57105e+07	
       983.908	     8.58845e+07	
       983.923	     8.60589e+07	
       983.983	     8.67793e+07	
       984.103	     8.81565e+07	
       984.344	     9.08332e+07	
       984.824	     9.63373e+07	
       984.951	     9.77186e+07	
       985.785	     1.07294e+08	
       986.202	     1.12316e+08	
       986.410	     1.14782e+08	
       986.618	     1.17282e+08	
       986.722	     1.18517e+08	
