# Koester WD models
# teff = 17250 K (value for the effective temperature for the model. Temperatures are given in K)
# logg = 9.5 log(cm/s2) (value for Log(G) for the model.)
#
#   WAVELENGTH	#           FLUX	
#   (ANGSTROM)	#  (ERG/CM2/S/A)	
##############	################	
       899.230	     1.89906e+06	
       904.235	     1.99485e+06	
       908.450	     2.07817e+06	
       909.241	     2.09405e+06	
       910.032	     2.11001e+06	
       911.193	     2.13349e+06	
       911.613	     2.14196e+06	
       911.824	     2.14617e+06	
       911.929	     2.14826e+06	
       912.034	     2.15034e+06	
       912.139	     2.16466e+06	
       912.244	     2.17886e+06	
       912.349	     2.19293e+06	
       912.454	     2.20687e+06	
       912.559	     2.22068e+06	
       912.664	     2.23433e+06	
       912.770	     2.24777e+06	
       912.875	     2.26088e+06	
       912.886	     2.26223e+06	
       913.037	     2.28035e+06	
       913.085	     2.28595e+06	
       913.241	     2.30341e+06	
       913.284	     2.30797e+06	
       913.531	     2.33194e+06	
       913.822	     2.35392e+06	
       914.059	     2.36287e+06	
       914.112	     2.36574e+06	
       914.165	     2.36732e+06	
       914.271	     2.36678e+06	
       914.377	     2.36162e+06	
       914.391	     2.36050e+06	
       914.448	     2.35892e+06	
       914.483	     2.35796e+06	
       914.575	     2.35740e+06	
       914.604	     2.35797e+06	
       914.760	     2.35385e+06	
       914.916	     2.32180e+06	
       915.071	     2.29634e+06	
       915.122	     2.30127e+06	
       915.226	     2.32335e+06	
       915.252	     2.32844e+06	
       915.382	     2.32204e+06	
       915.512	     2.24042e+06	
       915.609	     2.17429e+06	
       915.643	     2.16099e+06	
       915.677	     2.16327e+06	
       915.745	     2.19949e+06	
       915.881	     2.33722e+06	
       916.017	     2.42334e+06	
       916.153	     2.35980e+06	
       916.289	     2.16944e+06	
       916.379	     2.05924e+06	
       916.421	     2.04232e+06	
       916.425	     2.04242e+06	
       916.429	     2.04284e+06	
       916.479	     2.07490e+06	
       916.580	     2.23978e+06	
       916.680	     2.44384e+06	
       916.780	     2.60318e+06	
       916.880	     2.66956e+06	
       916.980	     2.61340e+06	
       917.080	     2.44306e+06	
       917.180	     2.19021e+06	
       917.182	     2.18541e+06	
       917.280	     1.93459e+06	
       917.378	     1.82010e+06	
       917.575	     2.23806e+06	
       917.771	     2.81280e+06	
       917.967	     3.05980e+06	
       918.163	     2.83568e+06	
       918.359	     2.22222e+06	
       918.510	     1.72998e+06	
       918.556	     1.63730e+06	
       918.602	     1.60438e+06	
       918.694	     1.73657e+06	
       918.878	     2.40865e+06	
       919.062	     3.09154e+06	
       919.201	     3.45936e+06	
       919.241	     3.53030e+06	
       919.246	     3.53787e+06	
       919.251	     3.54519e+06	
       919.301	     3.60435e+06	
       919.402	     3.64415e+06	
       919.502	     3.59540e+06	
       919.602	     3.43750e+06	
       919.702	     3.16537e+06	
       919.802	     2.84579e+06	
       919.902	     2.44999e+06	
       920.002	     2.04169e+06	
       920.102	     1.66263e+06	
       920.165	     1.50003e+06	
       920.189	     1.46717e+06	
       920.202	     1.45882e+06	
       920.215	     1.45593e+06	
       920.265	     1.50182e+06	
       920.366	     1.80226e+06	
       920.466	     2.21227e+06	
       920.566	     2.64701e+06	
       920.666	     3.07892e+06	
       920.866	     3.84295e+06	
       921.066	     4.34338e+06	
       921.266	     4.55251e+06	
       921.467	     4.46998e+06	
       921.667	     4.06547e+06	
       921.867	     3.38720e+06	
       922.067	     2.55547e+06	
       922.130	     2.27955e+06	
       922.267	     1.68363e+06	
       922.405	     1.37981e+06	
       922.542	     1.68886e+06	
       922.548	     1.71031e+06	
       922.679	     2.29639e+06	
       922.810	     2.89965e+06	
       922.941	     3.47693e+06	
       923.072	     4.04973e+06	
       923.203	     4.54654e+06	
       923.335	     4.99846e+06	
       923.466	     5.34115e+06	
       923.597	     5.61139e+06	
       923.728	     5.78989e+06	
       923.859	     5.88753e+06	
       923.990	     5.90877e+06	
       924.121	     5.84848e+06	
       924.252	     5.69800e+06	
       924.384	     5.45318e+06	
       924.515	     5.13075e+06	
       924.646	     4.71459e+06	
       924.777	     4.23072e+06	
       924.908	     3.68873e+06	
       925.039	     3.10556e+06	
       925.170	     2.49065e+06	
       925.302	     1.87461e+06	
       925.382	     1.53042e+06	
       925.433	     1.39832e+06	
       925.484	     1.36207e+06	
       925.586	     1.53383e+06	
       925.688	     1.98635e+06	
       925.790	     2.47693e+06	
       925.892	     2.97216e+06	
       925.994	     3.44353e+06	
       926.096	     3.92677e+06	
       926.198	     4.37649e+06	
       926.232	     4.52022e+06	
       926.301	     4.80840e+06	
       926.369	     5.09324e+06	
       926.505	     5.60944e+06	
       926.641	     6.07835e+06	
       926.777	     6.50263e+06	
       926.913	     6.86400e+06	
       927.049	     7.16409e+06	
       927.185	     7.41086e+06	
       927.322	     7.60080e+06	
       927.458	     7.74227e+06	
       927.594	     7.83381e+06	
       927.730	     7.88288e+06	
       927.866	     7.88665e+06	
       928.002	     7.84239e+06	
       928.006	     7.84032e+06	
       928.094	     7.77481e+06	
       928.138	     7.73108e+06	
       928.182	     7.68053e+06	
       928.359	     7.41124e+06	
       928.535	     7.04499e+06	
       928.711	     6.56772e+06	
       928.887	     6.01838e+06	
       928.985	     5.69046e+06	
       929.037	     5.50878e+06	
       929.063	     5.41435e+06	
       929.089	     5.31784e+06	
       929.125	     5.17936e+06	
       929.193	     4.90453e+06	
       929.261	     4.62201e+06	
       929.398	     4.03453e+06	
       929.493	     3.59254e+06	
       929.525	     3.44086e+06	
       929.534	     3.39832e+06	
       929.543	     3.35554e+06	
       929.593	     3.11616e+06	
       929.617	     2.99903e+06	
       929.655	     2.80919e+06	
       929.693	     2.61712e+06	
       929.769	     2.23935e+06	
       929.827	     1.93932e+06	
       929.883	     1.66167e+06	
       929.910	     1.54924e+06	
       929.939	     1.45890e+06	
       929.954	     1.43173e+06	
       929.968	     1.41445e+06	
       929.982	     1.40658e+06	
       929.996	     1.40272e+06	
       930.010	     1.40159e+06	
       930.024	     1.40315e+06	
       930.038	     1.40744e+06	
       930.052	     1.41575e+06	
       930.081	     1.46115e+06	
       930.137	     1.66620e+06	
       930.201	     1.98880e+06	
       930.247	     2.22988e+06	
       930.249	     2.24027e+06	
       930.251	     2.25068e+06	
       930.301	     2.50673e+06	
       930.326	     2.62410e+06	
       930.402	     3.01381e+06	
       930.478	     3.38909e+06	
       930.630	     4.12369e+06	
       930.633	     4.13785e+06	
       930.782	     4.80651e+06	
       930.931	     5.45299e+06	
       931.080	     6.03578e+06	
       931.229	     6.60177e+06	
       931.379	     7.16582e+06	
       931.516	     7.64485e+06	
       931.528	     7.68531e+06	
       931.677	     8.15846e+06	
       931.838	     8.63903e+06	
       931.999	     9.06840e+06	
       932.160	     9.42607e+06	
       932.321	     9.74242e+06	
       932.483	     1.00180e+07	
       932.644	     1.02581e+07	
       932.805	     1.04501e+07	
       932.966	     1.06004e+07	
       933.127	     1.07231e+07	
       933.173	     1.07530e+07	
       933.265	     1.08058e+07	
       933.288	     1.08175e+07	
       933.403	     1.08668e+07	
       933.432	     1.08752e+07	
       933.542	     1.08975e+07	
       933.652	     1.09028e+07	
       933.762	     1.08892e+07	
       933.872	     1.08567e+07	
       933.982	     1.08017e+07	
       934.092	     1.07219e+07	
       934.202	     1.06188e+07	
       934.312	     1.04914e+07	
       934.413	     1.03584e+07	
       934.422	     1.03464e+07	
       934.533	     1.01882e+07	
       934.652	     9.99074e+06	
       934.771	     9.76668e+06	
       934.890	     9.52487e+06	
       935.009	     9.25221e+06	
       935.026	     9.21074e+06	
       935.128	     8.95954e+06	
       935.230	     8.70573e+06	
       935.332	     8.43449e+06	
       935.434	     8.15180e+06	
       935.537	     7.85621e+06	
       935.639	     7.54422e+06	
       935.741	     7.21671e+06	
       935.843	     6.86755e+06	
       935.945	     6.49578e+06	
       935.950	     6.47699e+06	
       936.047	     6.10631e+06	
       936.144	     5.71726e+06	
       936.338	     4.87805e+06	
       936.464	     4.29519e+06	
       936.532	     3.96218e+06	
       936.601	     3.61758e+06	
       936.645	     3.39100e+06	
       936.714	     3.02878e+06	
       936.737	     2.90659e+06	
       936.829	     2.41860e+06	
       936.887	     2.08797e+06	
       936.944	     1.77020e+06	
       936.973	     1.63334e+06	
       937.001	     1.54157e+06	
       937.015	     1.51940e+06	
       937.029	     1.50842e+06	
       937.043	     1.50498e+06	
       937.058	     1.50380e+06	
       937.072	     1.50375e+06	
       937.086	     1.50425e+06	
       937.101	     1.50591e+06	
       937.115	     1.50981e+06	
       937.143	     1.54391e+06	
       937.150	     1.56258e+06	
       937.186	     1.70640e+06	
       937.199	     1.77005e+06	
       937.250	     2.05547e+06	
       937.314	     2.42515e+06	
       937.341	     2.57259e+06	
       937.442	     3.11576e+06	
       937.543	     3.65128e+06	
       937.645	     4.17163e+06	
       937.746	     4.66649e+06	
       937.847	     5.13770e+06	
       937.896	     5.36402e+06	
       937.948	     5.59819e+06	
       938.000	     5.82552e+06	
       938.104	     6.26562e+06	
       938.208	     6.68842e+06	
       938.312	     7.09617e+06	
       938.416	     7.48393e+06	
       938.520	     7.85376e+06	
       938.624	     8.21341e+06	
       938.752	     8.63693e+06	
       938.833	     8.90484e+06	
       938.881	     9.06174e+06	
       938.914	     9.16833e+06	
       939.076	     9.68207e+06	
       939.271	     1.03064e+07	
       939.466	     1.08940e+07	
       939.661	     1.14640e+07	
       939.857	     1.20221e+07	
       940.052	     1.25670e+07	
       940.144	     1.28106e+07	
       940.247	     1.30709e+07	
       940.293	     1.31819e+07	
       940.442	     1.35279e+07	
       940.591	     1.38538e+07	
       940.690	     1.40596e+07	
       940.740	     1.41592e+07	
       940.790	     1.42464e+07	
       940.891	     1.44154e+07	
       941.091	     1.47316e+07	
       941.291	     1.50199e+07	
       941.491	     1.52665e+07	
       941.691	     1.54875e+07	
       941.891	     1.56893e+07	
       942.092	     1.58718e+07	
       942.292	     1.60330e+07	
       942.337	     1.60653e+07	
       942.492	     1.61683e+07	
       942.692	     1.62816e+07	
       942.870	     1.63626e+07	
       943.048	     1.64249e+07	
       943.225	     1.64663e+07	
       943.403	     1.64680e+07	
       943.580	     1.64417e+07	
       943.758	     1.63851e+07	
       943.935	     1.62967e+07	
       944.114	     1.61711e+07	
       944.291	     1.60033e+07	
       944.469	     1.57966e+07	
       944.646	     1.55507e+07	
       944.824	     1.52747e+07	
       945.001	     1.49751e+07	
       945.051	     1.48854e+07	
       945.179	     1.46417e+07	
       945.308	     1.43805e+07	
       945.564	     1.38467e+07	
       945.820	     1.32549e+07	
       946.076	     1.26294e+07	
       946.333	     1.19625e+07	
       946.589	     1.13067e+07	
       946.845	     1.06180e+07	
       947.044	     1.00538e+07	
       947.101	     9.88697e+06	
       947.158	     9.71666e+06	
       947.272	     9.36666e+06	
       947.386	     9.00179e+06	
       947.501	     8.62245e+06	
       947.615	     8.22720e+06	
       947.729	     7.81229e+06	
       947.831	     7.42145e+06	
       947.843	     7.37404e+06	
       947.957	     6.90940e+06	
       948.083	     6.36622e+06	
       948.209	     5.78641e+06	
       948.335	     5.17628e+06	
       948.377	     4.96463e+06	
       948.461	     4.52396e+06	
       948.546	     4.06462e+06	
       948.651	     3.46945e+06	
       948.661	     3.41130e+06	
       948.714	     3.10473e+06	
       948.777	     2.73562e+06	
       948.835	     2.36597e+06	
       948.893	     1.99249e+06	
       948.922	     1.83046e+06	
       948.951	     1.72490e+06	
       948.966	     1.70850e+06	
       948.980	     1.70452e+06	
       948.994	     1.70411e+06	
       949.009	     1.70430e+06	
       949.023	     1.70453e+06	
       949.037	     1.70479e+06	
       949.052	     1.70513e+06	
       949.066	     1.70605e+06	
       949.095	     1.72748e+06	
       949.153	     1.99779e+06	
       949.230	     2.49980e+06	
       949.258	     2.68359e+06	
       949.269	     2.74891e+06	
       949.280	     2.81444e+06	
       949.330	     3.11170e+06	
       949.360	     3.28824e+06	
       949.430	     3.69866e+06	
       949.500	     4.10132e+06	
       949.640	     4.87450e+06	
       949.781	     5.59483e+06	
       949.795	     5.66398e+06	
       949.879	     6.07816e+06	
       949.921	     6.27838e+06	
       949.963	     6.47454e+06	
       950.131	     7.22519e+06	
       950.299	     7.92263e+06	
       950.467	     8.57133e+06	
       950.635	     9.18441e+06	
       950.719	     9.48076e+06	
       950.804	     9.76994e+06	
       950.888	     1.00527e+07	
       951.056	     1.06016e+07	
       951.224	     1.11338e+07	
       951.392	     1.16543e+07	
       951.728	     1.26861e+07	
       952.065	     1.37644e+07	
       952.401	     1.48436e+07	
       952.738	     1.59131e+07	
       953.075	     1.70314e+07	
       953.413	     1.81549e+07	
       953.750	     1.92877e+07	
       954.087	     2.03738e+07	
       954.425	     2.13807e+07	
       954.593	     2.18647e+07	
       954.762	     2.23363e+07	
       954.930	     2.27624e+07	
       955.099	     2.31564e+07	
       955.267	     2.35417e+07	
       955.437	     2.39179e+07	
       955.534	     2.41305e+07	
       955.774	     2.46463e+07	
       956.014	     2.51255e+07	
       956.494	     2.60967e+07	
       956.975	     2.70018e+07	
       957.455	     2.78451e+07	
       957.543	     2.79920e+07	
       957.936	     2.86176e+07	
       957.980	     2.86849e+07	
       958.416	     2.93242e+07	
       958.852	     2.99026e+07	
       959.289	     3.04063e+07	
       959.725	     3.08285e+07	
       959.893	     3.09710e+07	
       960.162	     3.11745e+07	
       960.430	     3.13447e+07	
       960.966	     3.16248e+07	
       961.234	     3.17081e+07	
       961.503	     3.17518e+07	
       961.771	     3.17530e+07	
       962.039	     3.17125e+07	
       962.307	     3.16255e+07	
       962.576	     3.14932e+07	
       962.844	     3.13132e+07	
       963.112	     3.10802e+07	
       963.380	     3.08018e+07	
       963.648	     3.04726e+07	
       963.917	     3.00946e+07	
       964.047	     2.98957e+07	
       964.139	     2.97469e+07	
       964.185	     2.96700e+07	
       964.231	     2.95919e+07	
       964.415	     2.92741e+07	
       964.783	     2.85774e+07	
       965.152	     2.77998e+07	
       965.520	     2.69534e+07	
       965.888	     2.60406e+07	
       966.257	     2.50711e+07	
       966.625	     2.40708e+07	
       966.691	     2.38888e+07	
       966.993	     2.30244e+07	
       967.361	     2.19590e+07	
       968.032	     1.99573e+07	
       968.108	     1.97216e+07	
       968.405	     1.87964e+07	
       968.703	     1.78565e+07	
       969.000	     1.68893e+07	
       969.297	     1.58928e+07	
       969.594	     1.48468e+07	
       969.786	     1.41416e+07	
       969.856	     1.38773e+07	
       969.892	     1.37435e+07	
       969.927	     1.36082e+07	
       970.067	     1.30530e+07	
       970.207	     1.24746e+07	
       970.347	     1.18708e+07	
       970.380	     1.17226e+07	
       970.487	     1.12332e+07	
       970.504	     1.11550e+07	
       970.627	     1.05580e+07	
       970.751	     9.91581e+06	
       970.874	     9.23399e+06	
       970.895	     9.11618e+06	
       970.997	     8.50655e+06	
       971.008	     8.44290e+06	
       971.121	     7.71679e+06	
       971.235	     6.92523e+06	
       971.348	     6.05765e+06	
       971.461	     5.10795e+06	
       971.535	     4.44934e+06	
       971.563	     4.18991e+06	
       971.567	     4.15683e+06	
       971.574	     4.09108e+06	
       971.585	     3.99252e+06	
       971.635	     3.52977e+06	
       971.644	     3.44680e+06	
       971.703	     2.90519e+06	
       971.732	     2.64112e+06	
       971.762	     2.38628e+06	
       971.778	     2.26958e+06	
       971.792	     2.19113e+06	
       971.806	     2.15004e+06	
       971.821	     2.14433e+06	
       971.827	     2.14445e+06	
       971.833	     2.14458e+06	
       971.836	     2.14464e+06	
       971.839	     2.14470e+06	
       971.851	     2.14495e+06	
       971.866	     2.14630e+06	
       971.880	     2.16951e+06	
       971.910	     2.34325e+06	
       971.969	     2.85712e+06	
       972.037	     3.48685e+06	
       972.087	     3.95429e+06	
       972.137	     4.41695e+06	
       972.150	     4.53552e+06	
       972.237	     5.31294e+06	
       972.324	     6.04581e+06	
       972.499	     7.35940e+06	
       972.548	     7.69279e+06	
       972.673	     8.48362e+06	
       972.798	     9.20414e+06	
       972.923	     9.86237e+06	
       973.048	     1.04688e+07	
       973.173	     1.10280e+07	
       973.298	     1.15503e+07	
       973.423	     1.20478e+07	
       973.548	     1.25189e+07	
       973.601	     1.27121e+07	
       973.673	     1.29698e+07	
       973.746	     1.32224e+07	
       973.890	     1.37153e+07	
       974.034	     1.41862e+07	
       974.178	     1.46380e+07	
       974.466	     1.55259e+07	
       974.754	     1.63827e+07	
       975.043	     1.72003e+07	
       975.331	     1.80225e+07	
       975.556	     1.85985e+07	
       975.598	     1.87064e+07	
       975.619	     1.87605e+07	
       975.640	     1.88147e+07	
       975.724	     1.90324e+07	
       975.892	     1.94730e+07	
       976.228	     2.03286e+07	
       976.565	     2.12150e+07	
       976.733	     2.16823e+07	
       976.901	     2.21726e+07	
       977.069	     2.26911e+07	
       977.237	     2.32430e+07	
       977.405	     2.37588e+07	
       977.574	     2.42653e+07	
       977.910	     2.53609e+07	
       978.246	     2.64445e+07	
       978.414	     2.70170e+07	
       978.582	     2.76271e+07	
       978.750	     2.82891e+07	
       978.919	     2.90000e+07	
       979.087	     2.97731e+07	
       979.105	     2.98602e+07	
       979.205	     3.03578e+07	
       979.255	     3.06191e+07	
       979.305	     3.08884e+07	
       979.505	     3.18523e+07	
       979.705	     3.29192e+07	
       979.905	     3.41108e+07	
       980.105	     3.51488e+07	
       980.306	     3.61013e+07	
       980.506	     3.71189e+07	
       980.906	     3.89787e+07	
       981.306	     4.07370e+07	
       981.707	     4.24611e+07	
       982.507	     4.58032e+07	
       982.692	     4.65675e+07	
       983.308	     4.91389e+07	
       983.923	     5.19085e+07	
       984.539	     5.45981e+07	
       984.921	     5.62069e+07	
       985.154	     5.71459e+07	
       985.770	     5.96736e+07	
       986.194	     6.14119e+07	
       986.406	     6.22516e+07	
       986.618	     6.30929e+07	
       986.830	     6.38632e+07	
       987.043	     6.44083e+07	
       987.255	     6.49351e+07	
       987.467	     6.54507e+07	
       987.679	     6.59257e+07	
       987.891	     6.63844e+07	
       988.103	     6.68280e+07	
       988.167	     6.70102e+07	
       988.316	     6.75223e+07	
       988.454	     6.79929e+07	
       988.740	     6.89715e+07	
       989.026	     6.97308e+07	
