# Koester WD models
# teff = 17750 K (value for the effective temperature for the model. Temperatures are given in K)
# logg = 8.5 log(cm/s2) (value for Log(G) for the model.)
#
#   WAVELENGTH	#           FLUX	
#   (ANGSTROM)	#  (ERG/CM2/S/A)	
##############	################	
       899.230	     2.45921e+06	
       899.517	     2.46601e+06	
       900.092	     2.47966e+06	
       901.242	     2.50711e+06	
       902.847	     2.54581e+06	
       903.540	     2.56268e+06	
       904.235	     2.57964e+06	
       905.624	     2.61379e+06	
       907.563	     2.66201e+06	
       908.402	     2.68306e+06	
       908.450	     2.68427e+06	
       909.241	     2.70422e+06	
       910.032	     2.72425e+06	
       911.193	     2.75385e+06	
       911.613	     2.76451e+06	
       911.824	     2.76980e+06	
       911.929	     2.77242e+06	
       912.034	     2.77503e+06	
       912.139	     2.81941e+06	
       912.244	     2.86360e+06	
       912.349	     2.90735e+06	
       912.454	     2.95068e+06	
       912.559	     2.99369e+06	
       912.664	     3.03687e+06	
       912.770	     3.07920e+06	
       912.875	     3.11981e+06	
       912.886	     3.12390e+06	
       912.980	     3.15680e+06	
       913.085	     3.18671e+06	
       913.284	     3.22660e+06	
       913.339	     3.23270e+06	
       913.435	     3.24043e+06	
       913.483	     3.24652e+06	
       913.531	     3.25343e+06	
       913.625	     3.26003e+06	
       913.724	     3.24966e+06	
       913.822	     3.24505e+06	
       913.871	     3.25221e+06	
       914.018	     3.24322e+06	
       914.165	     3.15570e+06	
       914.312	     3.25573e+06	
       914.343	     3.26377e+06	
       914.459	     3.12392e+06	
       914.575	     2.96301e+06	
       914.692	     3.14995e+06	
       914.808	     3.29358e+06	
       914.924	     3.07122e+06	
       915.009	     2.77716e+06	
       915.040	     2.70210e+06	
       915.071	     2.67800e+06	
       915.133	     2.79182e+06	
       915.257	     3.25224e+06	
       915.381	     3.40077e+06	
       915.505	     3.02107e+06	
       915.609	     2.51849e+06	
       915.617	     2.48929e+06	
       915.630	     2.43782e+06	
       915.643	     2.40095e+06	
       915.677	     2.35935e+06	
       915.745	     2.53882e+06	
       915.881	     3.29987e+06	
       916.017	     3.70554e+06	
       916.153	     3.51221e+06	
       916.289	     2.76934e+06	
       916.379	     2.20348e+06	
       916.421	     2.09494e+06	
       916.425	     2.09290e+06	
       916.429	     2.09234e+06	
       916.479	     2.21038e+06	
       916.580	     2.88004e+06	
       916.680	     3.56832e+06	
       916.780	     4.04750e+06	
       916.880	     4.25912e+06	
       916.980	     4.15472e+06	
       917.080	     3.76492e+06	
       917.180	     3.11859e+06	
       917.182	     3.10320e+06	
       917.280	     2.31274e+06	
       917.378	     1.86730e+06	
       917.575	     3.15218e+06	
       917.771	     4.48296e+06	
       917.967	     5.05030e+06	
       918.163	     4.66652e+06	
       918.359	     3.43367e+06	
       918.510	     2.13517e+06	
       918.556	     1.81741e+06	
       918.602	     1.70853e+06	
       918.694	     2.14023e+06	
       918.878	     3.76463e+06	
       919.062	     5.09494e+06	
       919.201	     5.77667e+06	
       919.241	     5.91066e+06	
       919.246	     5.92530e+06	
       919.251	     5.93946e+06	
       919.301	     6.05149e+06	
       919.402	     6.13798e+06	
       919.502	     6.06538e+06	
       919.602	     5.80089e+06	
       919.702	     5.36135e+06	
       919.802	     4.76919e+06	
       919.902	     4.04772e+06	
       920.002	     3.21683e+06	
       920.102	     2.24241e+06	
       920.165	     1.73335e+06	
       920.189	     1.64470e+06	
       920.202	     1.62115e+06	
       920.215	     1.61375e+06	
       920.265	     1.73525e+06	
       920.366	     2.63417e+06	
       920.466	     3.55754e+06	
       920.566	     4.38236e+06	
       920.666	     5.15551e+06	
       920.766	     5.81880e+06	
       920.866	     6.40656e+06	
       920.966	     6.86400e+06	
       921.066	     7.20703e+06	
       921.166	     7.43700e+06	
       921.266	     7.54469e+06	
       921.367	     7.54614e+06	
       921.467	     7.43018e+06	
       921.567	     7.18523e+06	
       921.667	     6.82608e+06	
       921.767	     6.35042e+06	
       921.867	     5.76467e+06	
       921.967	     5.10572e+06	
       922.067	     4.33468e+06	
       922.167	     3.46760e+06	
       922.267	     2.49283e+06	
       922.331	     1.84114e+06	
       922.368	     1.62864e+06	
       922.405	     1.57358e+06	
       922.479	     1.84408e+06	
       922.627	     3.35246e+06	
       922.740	     4.35789e+06	
       922.775	     4.64283e+06	
       922.810	     4.93252e+06	
       922.880	     5.46339e+06	
       923.020	     6.43935e+06	
       923.160	     7.30471e+06	
       923.301	     8.05131e+06	
       923.441	     8.65028e+06	
       923.581	     9.08963e+06	
       923.721	     9.37825e+06	
       923.861	     9.53571e+06	
       924.001	     9.57190e+06	
       924.141	     9.47347e+06	
       924.282	     9.22808e+06	
       924.422	     8.82134e+06	
       924.562	     8.23842e+06	
       924.702	     7.52905e+06	
       924.842	     6.71525e+06	
       924.982	     5.76583e+06	
       925.122	     4.68930e+06	
       925.262	     3.40304e+06	
       925.322	     2.78187e+06	
       925.403	     1.89252e+06	
       925.484	     1.58241e+06	
       925.646	     2.79115e+06	
       925.808	     4.40392e+06	
       925.970	     5.72728e+06	
       926.132	     6.89124e+06	
       926.220	     7.47033e+06	
       926.295	     7.92995e+06	
       926.369	     8.38369e+06	
       926.517	     9.23496e+06	
       926.665	     9.96733e+06	
       926.813	     1.05867e+07	
       926.961	     1.10985e+07	
       927.109	     1.15017e+07	
       927.257	     1.18252e+07	
       927.406	     1.20731e+07	
       927.554	     1.22407e+07	
       927.702	     1.23387e+07	
       927.850	     1.23666e+07	
       927.998	     1.23229e+07	
       928.038	     1.22947e+07	
       928.110	     1.22116e+07	
       928.146	     1.21607e+07	
       928.182	     1.21033e+07	
       928.327	     1.18051e+07	
       928.471	     1.14033e+07	
       928.615	     1.08919e+07	
       928.717	     1.04703e+07	
       928.759	     1.02804e+07	
       928.903	     9.66417e+06	
       928.917	     9.59917e+06	
       929.089	     8.73338e+06	
       929.261	     7.72194e+06	
       929.325	     7.32418e+06	
       929.434	     6.57721e+06	
       929.543	     5.78132e+06	
       929.652	     4.88788e+06	
       929.719	     4.27706e+06	
       929.753	     3.94257e+06	
       929.755	     3.92200e+06	
       929.761	     3.85976e+06	
       929.769	     3.77557e+06	
       929.819	     3.23575e+06	
       929.827	     3.14524e+06	
       929.883	     2.48513e+06	
       929.910	     2.14408e+06	
       929.939	     1.82630e+06	
       929.954	     1.72524e+06	
       929.968	     1.67180e+06	
       929.982	     1.65057e+06	
       929.996	     1.64316e+06	
       930.010	     1.64152e+06	
       930.024	     1.64365e+06	
       930.038	     1.65156e+06	
       930.052	     1.67330e+06	
       930.081	     1.82906e+06	
       930.137	     2.49163e+06	
       930.201	     3.24812e+06	
       930.247	     3.75109e+06	
       930.249	     3.77230e+06	
       930.251	     3.79357e+06	
       930.301	     4.30147e+06	
       930.326	     4.52719e+06	
       930.402	     5.21197e+06	
       930.478	     5.83501e+06	
       930.630	     6.97088e+06	
       930.633	     6.99256e+06	
       930.782	     7.99941e+06	
       930.931	     8.93736e+06	
       931.080	     9.78427e+06	
       931.229	     1.05649e+07	
       931.379	     1.13674e+07	
       931.516	     1.20709e+07	
       931.528	     1.21314e+07	
       931.677	     1.28350e+07	
       931.838	     1.35290e+07	
       931.999	     1.41487e+07	
       932.160	     1.46352e+07	
       932.321	     1.50726e+07	
       932.483	     1.54557e+07	
       932.644	     1.57949e+07	
       932.805	     1.60715e+07	
       932.966	     1.62886e+07	
       933.127	     1.64649e+07	
       933.173	     1.65078e+07	
       933.265	     1.65836e+07	
       933.288	     1.66003e+07	
       933.403	     1.66704e+07	
       933.432	     1.66830e+07	
       933.542	     1.67182e+07	
       933.652	     1.67297e+07	
       933.762	     1.67164e+07	
       933.872	     1.66771e+07	
       933.982	     1.66012e+07	
       934.092	     1.64831e+07	
       934.202	     1.63305e+07	
       934.312	     1.61421e+07	
       934.413	     1.59444e+07	
       934.422	     1.59266e+07	
       934.533	     1.56890e+07	
       934.652	     1.53911e+07	
       934.771	     1.50502e+07	
       934.890	     1.46715e+07	
       935.009	     1.42482e+07	
       935.026	     1.41841e+07	
       935.128	     1.38106e+07	
       935.230	     1.34613e+07	
       935.332	     1.30909e+07	
       935.434	     1.27028e+07	
       935.537	     1.22944e+07	
       935.639	     1.18630e+07	
       935.741	     1.14111e+07	
       935.843	     1.09282e+07	
       935.945	     1.04084e+07	
       935.950	     1.03821e+07	
       936.047	     9.85527e+06	
       936.144	     9.29446e+06	
       936.338	     8.09510e+06	
       936.464	     7.23524e+06	
       936.532	     6.73199e+06	
       936.601	     6.19729e+06	
       936.645	     5.83180e+06	
       936.714	     5.22255e+06	
       936.737	     5.00767e+06	
       936.829	     4.08109e+06	
       936.887	     3.40238e+06	
       936.944	     2.66510e+06	
       936.973	     2.24802e+06	
       937.001	     1.90619e+06	
       937.015	     1.81697e+06	
       937.029	     1.77634e+06	
       937.043	     1.76575e+06	
       937.058	     1.76356e+06	
       937.072	     1.76345e+06	
       937.086	     1.76408e+06	
       937.101	     1.76683e+06	
       937.115	     1.77795e+06	
       937.143	     1.90903e+06	
       937.150	     1.97440e+06	
       937.186	     2.47175e+06	
       937.199	     2.65886e+06	
       937.250	     3.32849e+06	
       937.314	     4.08900e+06	
       937.341	     4.38513e+06	
       937.442	     5.37036e+06	
       937.543	     6.25120e+06	
       937.645	     7.05269e+06	
       937.746	     7.79241e+06	
       937.847	     8.47551e+06	
       937.896	     8.79800e+06	
       937.948	     9.13066e+06	
       938.000	     9.45484e+06	
       938.104	     1.00878e+07	
       938.208	     1.06862e+07	
       938.312	     1.12549e+07	
       938.416	     1.17902e+07	
       938.520	     1.23002e+07	
       938.543	     1.24111e+07	
       938.556	     1.24740e+07	
       938.624	     1.27979e+07	
       938.729	     1.32793e+07	
       938.914	     1.41121e+07	
       939.271	     1.58094e+07	
       939.628	     1.74535e+07	
       939.807	     1.82322e+07	
       939.986	     1.90310e+07	
       940.164	     1.97965e+07	
       940.343	     2.04917e+07	
       940.521	     2.11440e+07	
       940.580	     2.13515e+07	
       940.660	     2.16303e+07	
       940.700	     2.17673e+07	
       940.740	     2.19017e+07	
       940.901	     2.23941e+07	
       941.061	     2.28596e+07	
       941.221	     2.32974e+07	
       941.381	     2.36942e+07	
       941.541	     2.40285e+07	
       941.701	     2.43419e+07	
       942.022	     2.49042e+07	
       942.182	     2.51513e+07	
       942.342	     2.53660e+07	
       942.502	     2.55468e+07	
       942.662	     2.56980e+07	
       942.917	     2.58735e+07	
       942.982	     2.59049e+07	
       943.048	     2.59304e+07	
       943.178	     2.59682e+07	
       943.438	     2.59397e+07	
       943.698	     2.57870e+07	
       943.828	     2.56627e+07	
       943.958	     2.55066e+07	
       944.088	     2.53117e+07	
       944.219	     2.50703e+07	
       944.349	     2.47927e+07	
       944.479	     2.44796e+07	
       944.609	     2.41299e+07	
       944.691	     2.38918e+07	
       944.739	     2.37461e+07	
       944.845	     2.34427e+07	
       944.999	     2.29747e+07	
       945.153	     2.24708e+07	
       945.308	     2.19326e+07	
       945.616	     2.07961e+07	
       945.924	     1.95647e+07	
       946.232	     1.83953e+07	
       946.541	     1.72454e+07	
       946.849	     1.60714e+07	
       947.108	     1.50390e+07	
       947.157	     1.48393e+07	
       947.208	     1.46282e+07	
       947.308	     1.42063e+07	
       947.509	     1.33217e+07	
       947.709	     1.23636e+07	
       947.735	     1.22321e+07	
       947.909	     1.12935e+07	
       948.083	     1.02517e+07	
       948.257	     9.10955e+06	
       948.317	     8.69147e+06	
       948.431	     7.83507e+06	
       948.546	     6.89209e+06	
       948.660	     5.83387e+06	
       948.727	     5.14662e+06	
       948.761	     4.77183e+06	
       948.771	     4.65505e+06	
       948.774	     4.61934e+06	
       948.777	     4.58340e+06	
       948.827	     3.94565e+06	
       948.835	     3.83799e+06	
       948.893	     2.99190e+06	
       948.922	     2.49907e+06	
       948.951	     2.09295e+06	
       948.966	     2.01639e+06	
       948.980	     1.99698e+06	
       948.994	     1.99490e+06	
       949.009	     1.99500e+06	
       949.023	     1.99525e+06	
       949.037	     1.99557e+06	
       949.052	     1.99608e+06	
       949.066	     1.99874e+06	
       949.095	     2.09601e+06	
       949.153	     2.99950e+06	
       949.230	     4.10509e+06	
       949.258	     4.47089e+06	
       949.269	     4.60441e+06	
       949.280	     4.73623e+06	
       949.330	     5.29258e+06	
       949.360	     5.60708e+06	
       949.430	     6.30411e+06	
       949.500	     6.95062e+06	
       949.640	     8.12460e+06	
       949.781	     9.17332e+06	
       949.795	     9.27225e+06	
       949.879	     9.85866e+06	
       949.921	     1.01392e+07	
       949.963	     1.04161e+07	
       950.131	     1.14705e+07	
       950.299	     1.24326e+07	
       950.467	     1.33130e+07	
       950.635	     1.41358e+07	
       950.719	     1.45339e+07	
       950.804	     1.49233e+07	
       950.888	     1.53064e+07	
       951.056	     1.60583e+07	
       951.392	     1.75344e+07	
       951.728	     1.89977e+07	
       951.896	     1.97887e+07	
       952.065	     2.05895e+07	
       952.233	     2.14389e+07	
       952.401	     2.23457e+07	
       952.569	     2.32547e+07	
       952.688	     2.38980e+07	
       952.737	     2.41734e+07	
       952.788	     2.44610e+07	
       952.888	     2.50283e+07	
       953.089	     2.61775e+07	
       953.289	     2.73443e+07	
       953.489	     2.86403e+07	
       953.689	     2.99587e+07	
       953.889	     3.12912e+07	
       954.290	     3.39264e+07	
       954.490	     3.52389e+07	
       954.690	     3.65455e+07	
       954.890	     3.77990e+07	
       954.967	     3.82376e+07	
       955.090	     3.89306e+07	
       955.229	     3.97006e+07	
       955.491	     4.11216e+07	
       955.753	     4.25004e+07	
       956.014	     4.37482e+07	
       956.537	     4.61619e+07	
       957.061	     4.84446e+07	
       957.584	     5.05671e+07	
       957.974	     5.20289e+07	
       958.108	     5.25076e+07	
       958.302	     5.31821e+07	
       958.631	     5.42588e+07	
       958.960	     5.52383e+07	
       959.289	     5.61104e+07	
       959.463	     5.65506e+07	
       959.618	     5.69125e+07	
       959.705	     5.71038e+07	
       959.946	     5.75917e+07	
       960.189	     5.80089e+07	
       960.380	     5.82816e+07	
       960.430	     5.83447e+07	
       960.480	     5.84352e+07	
       960.580	     5.86036e+07	
       960.780	     5.88907e+07	
       961.180	     5.92482e+07	
       961.381	     5.93202e+07	
       961.581	     5.93142e+07	
       961.781	     5.92319e+07	
       961.981	     5.90755e+07	
       962.181	     5.88417e+07	
       962.381	     5.85266e+07	
       962.582	     5.81383e+07	
       962.782	     5.76771e+07	
       962.982	     5.71255e+07	
       963.182	     5.65059e+07	
       963.582	     5.50630e+07	
       963.735	     5.44476e+07	
       963.983	     5.33753e+07	
       964.231	     5.21985e+07	
       964.479	     5.09510e+07	
       964.727	     4.96409e+07	
       964.976	     4.82549e+07	
       965.472	     4.53618e+07	
       965.968	     4.23358e+07	
       966.465	     3.92859e+07	
       966.883	     3.67438e+07	
       967.170	     3.50325e+07	
       967.458	     3.33606e+07	
       967.745	     3.17282e+07	
       967.982	     3.04226e+07	
       968.032	     3.01459e+07	
       968.082	     2.98695e+07	
       968.182	     2.93221e+07	
       968.382	     2.82447e+07	
       968.783	     2.61484e+07	
       969.069	     2.46769e+07	
       969.124	     2.43954e+07	
       969.183	     2.40930e+07	
       969.297	     2.35094e+07	
       969.525	     2.23308e+07	
       969.725	     2.12833e+07	
       969.927	     2.02125e+07	
       970.128	     1.91066e+07	
       970.328	     1.79535e+07	
       970.428	     1.73527e+07	
       970.528	     1.67304e+07	
       970.629	     1.60837e+07	
       970.695	     1.56316e+07	
       970.729	     1.53924e+07	
       970.784	     1.49939e+07	
       970.829	     1.46643e+07	
       970.874	     1.43264e+07	
       971.053	     1.28652e+07	
       971.117	     1.22920e+07	
       971.233	     1.11732e+07	
       971.348	     9.91578e+06	
       971.463	     8.48067e+06	
       971.535	     7.46552e+06	
       971.567	     6.97672e+06	
       971.571	     6.91443e+06	
       971.578	     6.80522e+06	
       971.585	     6.69417e+06	
       971.635	     5.86312e+06	
       971.644	     5.70821e+06	
       971.703	     4.63206e+06	
       971.732	     4.06993e+06	
       971.762	     3.46979e+06	
       971.778	     3.14288e+06	
       971.792	     2.86961e+06	
       971.806	     2.63375e+06	
       971.821	     2.50600e+06	
       971.827	     2.50102e+06	
       971.833	     2.50112e+06	
       971.836	     2.50119e+06	
       971.839	     2.50126e+06	
       971.851	     2.50160e+06	
       971.866	     2.56293e+06	
       971.880	     2.76288e+06	
       971.910	     3.35035e+06	
       971.969	     4.52732e+06	
       972.037	     5.77959e+06	
       972.087	     6.62449e+06	
       972.137	     7.41117e+06	
       972.150	     7.60485e+06	
       972.237	     8.82165e+06	
       972.324	     9.90459e+06	
       972.499	     1.17715e+07	
       972.548	     1.22351e+07	
       972.673	     1.33248e+07	
       972.798	     1.43040e+07	
       972.923	     1.51893e+07	
       973.048	     1.59992e+07	
       973.173	     1.67431e+07	
       973.298	     1.74384e+07	
       973.423	     1.81028e+07	
       973.548	     1.87365e+07	
       973.601	     1.89985e+07	
       973.673	     1.93490e+07	
       973.746	     1.96935e+07	
       973.890	     2.03706e+07	
       974.178	     2.16621e+07	
       974.466	     2.29319e+07	
       975.043	     2.54100e+07	
       975.556	     2.75724e+07	
       975.598	     2.77435e+07	
       975.619	     2.78295e+07	
       975.640	     2.79155e+07	
       975.724	     2.82626e+07	
       975.892	     2.89739e+07	
       976.228	     3.03846e+07	
       976.397	     3.11180e+07	
       976.565	     3.18831e+07	
       976.733	     3.26914e+07	
       976.901	     3.35488e+07	
       977.069	     3.44677e+07	
       977.237	     3.54645e+07	
       977.405	     3.64089e+07	
       977.574	     3.73422e+07	
       977.742	     3.83391e+07	
       977.910	     3.94110e+07	
       978.078	     4.04502e+07	
       978.246	     4.15014e+07	
       978.414	     4.26248e+07	
       978.582	     4.38340e+07	
       978.750	     4.51595e+07	
       978.919	     4.66153e+07	
       979.087	     4.82225e+07	
       979.105	     4.84053e+07	
       979.205	     4.94606e+07	
       979.255	     5.00151e+07	
       979.305	     5.05897e+07	
       979.505	     5.26559e+07	
       979.705	     5.49854e+07	
       979.905	     5.76416e+07	
       980.105	     6.00107e+07	
       980.306	     6.22221e+07	
       980.506	     6.46235e+07	
