# Koester WD models
# teff = 18500 K (value for the effective temperature for the model. Temperatures are given in K)
# logg = 8.5 log(cm/s2) (value for Log(G) for the model.)
#
#   WAVELENGTH	#           FLUX	
#   (ANGSTROM)	#  (ERG/CM2/S/A)	
##############	################	
       899.230	     4.25658e+06	
       901.090	     4.32849e+06	
       904.235	     4.45201e+06	
       908.450	     4.62131e+06	
       909.241	     4.65355e+06	
       910.032	     4.68591e+06	
       911.193	     4.73363e+06	
       911.613	     4.75081e+06	
       911.824	     4.75932e+06	
       911.929	     4.76353e+06	
       912.034	     4.76774e+06	
       912.139	     4.83208e+06	
       912.244	     4.89573e+06	
       912.349	     4.95878e+06	
       912.454	     5.02127e+06	
       912.559	     5.08288e+06	
       912.664	     5.14351e+06	
       912.770	     5.20263e+06	
       912.875	     5.25956e+06	
       912.886	     5.26534e+06	
       913.085	     5.35726e+06	
       913.284	     5.42324e+06	
       913.339	     5.43524e+06	
       913.435	     5.45305e+06	
       913.483	     5.46471e+06	
       913.531	     5.47633e+06	
       913.625	     5.48912e+06	
       913.724	     5.48541e+06	
       913.822	     5.48821e+06	
       913.871	     5.49776e+06	
       914.018	     5.48654e+06	
       914.165	     5.39732e+06	
       914.312	     5.50212e+06	
       914.343	     5.50809e+06	
       914.459	     5.34580e+06	
       914.575	     5.16384e+06	
       914.692	     5.37536e+06	
       914.808	     5.52722e+06	
       914.924	     5.24860e+06	
       915.009	     4.88524e+06	
       915.040	     4.79241e+06	
       915.071	     4.76234e+06	
       915.133	     4.90575e+06	
       915.257	     5.46860e+06	
       915.381	     5.63049e+06	
       915.505	     5.12856e+06	
       915.609	     4.46024e+06	
       915.617	     4.42129e+06	
       915.630	     4.35268e+06	
       915.643	     4.30210e+06	
       915.677	     4.24819e+06	
       915.745	     4.50118e+06	
       915.881	     5.52581e+06	
       916.017	     6.05071e+06	
       916.153	     5.78267e+06	
       916.289	     4.75449e+06	
       916.379	     3.94615e+06	
       916.421	     3.78125e+06	
       916.425	     3.77827e+06	
       916.429	     3.77758e+06	
       916.479	     3.96221e+06	
       916.580	     4.93616e+06	
       916.680	     5.90447e+06	
       916.880	     6.86111e+06	
       917.080	     6.13346e+06	
       917.182	     5.17942e+06	
       917.280	     4.02020e+06	
       917.378	     3.32695e+06	
       917.575	     5.26760e+06	
       917.771	     7.21083e+06	
       917.967	     8.04263e+06	
       918.163	     7.45264e+06	
       918.359	     5.60737e+06	
       918.510	     3.67994e+06	
       918.556	     3.17254e+06	
       918.602	     2.98654e+06	
       918.694	     3.68886e+06	
       918.878	     6.11803e+06	
       919.062	     8.11690e+06	
       919.201	     9.14857e+06	
       919.241	     9.35258e+06	
       919.246	     9.37483e+06	
       919.251	     9.39641e+06	
       919.301	     9.56662e+06	
       919.402	     9.69483e+06	
       919.502	     9.58129e+06	
       919.602	     9.16996e+06	
       919.702	     8.48387e+06	
       919.802	     7.58971e+06	
       919.902	     6.49238e+06	
       920.002	     5.24640e+06	
       920.102	     3.79281e+06	
       920.165	     2.98256e+06	
       920.189	     2.82167e+06	
       920.202	     2.77729e+06	
       920.215	     2.76306e+06	
       920.265	     2.98568e+06	
       920.366	     4.38466e+06	
       920.466	     5.75722e+06	
       920.566	     7.00616e+06	
       920.666	     8.18589e+06	
       920.766	     9.20531e+06	
       920.866	     1.01270e+07	
       920.966	     1.08448e+07	
       921.066	     1.13878e+07	
       921.166	     1.17523e+07	
       921.266	     1.19222e+07	
       921.367	     1.19225e+07	
       921.467	     1.17364e+07	
       921.567	     1.13429e+07	
       921.667	     1.07705e+07	
       921.767	     1.00236e+07	
       921.867	     9.09947e+06	
       921.967	     8.08479e+06	
       922.067	     6.90695e+06	
       922.167	     5.58974e+06	
       922.267	     4.13440e+06	
       922.331	     3.12466e+06	
       922.368	     2.75553e+06	
       922.405	     2.64723e+06	
       922.479	     3.12938e+06	
       922.627	     5.41821e+06	
       922.740	     6.94317e+06	
       922.775	     7.37834e+06	
       922.810	     7.82099e+06	
       922.880	     8.63118e+06	
       923.020	     1.01636e+07	
       923.160	     1.15277e+07	
       923.301	     1.27237e+07	
       923.441	     1.36791e+07	
       923.581	     1.43836e+07	
       923.721	     1.48471e+07	
       923.861	     1.50967e+07	
       924.001	     1.51509e+07	
       924.141	     1.49895e+07	
       924.282	     1.45914e+07	
       924.422	     1.39381e+07	
       924.562	     1.30154e+07	
       924.702	     1.18720e+07	
       924.842	     1.05826e+07	
       924.982	     9.08341e+06	
       925.122	     7.43320e+06	
       925.262	     5.48444e+06	
       925.322	     4.55594e+06	
       925.403	     3.18507e+06	
       925.484	     2.62196e+06	
       925.646	     4.57039e+06	
       925.808	     6.99516e+06	
       925.970	     9.02159e+06	
       926.132	     1.08561e+07	
       926.220	     1.17750e+07	
       926.295	     1.25049e+07	
       926.369	     1.32385e+07	
       926.517	     1.45903e+07	
       926.665	     1.57627e+07	
       926.813	     1.67597e+07	
       926.961	     1.75895e+07	
       927.109	     1.82503e+07	
       927.257	     1.87776e+07	
       927.406	     1.91779e+07	
       927.554	     1.94479e+07	
       927.702	     1.96040e+07	
       927.850	     1.96455e+07	
       927.998	     1.95681e+07	
       928.038	     1.95208e+07	
       928.110	     1.93859e+07	
       928.146	     1.93034e+07	
       928.182	     1.92103e+07	
       928.327	     1.87290e+07	
       928.471	     1.80881e+07	
       928.615	     1.72680e+07	
       928.717	     1.65893e+07	
       928.759	     1.62820e+07	
       928.903	     1.52793e+07	
       928.917	     1.51735e+07	
       929.089	     1.37811e+07	
       929.261	     1.21592e+07	
       929.325	     1.15256e+07	
       929.434	     1.03483e+07	
       929.543	     9.10129e+06	
       929.652	     7.72945e+06	
       929.719	     6.79640e+06	
       929.753	     6.29252e+06	
       929.755	     6.26123e+06	
       929.761	     6.16663e+06	
       929.769	     6.03971e+06	
       929.819	     5.22723e+06	
       929.827	     5.09148e+06	
       929.883	     4.08985e+06	
       929.910	     3.56706e+06	
       929.939	     3.05009e+06	
       929.954	     2.87170e+06	
       929.968	     2.76342e+06	
       929.982	     2.71284e+06	
       929.996	     2.69275e+06	
       930.010	     2.68797e+06	
       930.024	     2.69352e+06	
       930.038	     2.71439e+06	
       930.052	     2.76578e+06	
       930.081	     3.05446e+06	
       930.137	     4.09997e+06	
       930.201	     5.24621e+06	
       930.247	     6.00283e+06	
       930.249	     6.03491e+06	
       930.251	     6.06704e+06	
       930.301	     6.83331e+06	
       930.326	     7.17505e+06	
       930.402	     8.22224e+06	
       930.478	     9.18196e+06	
       930.630	     1.09616e+07	
       930.633	     1.09955e+07	
       930.782	     1.25890e+07	
       930.931	     1.40936e+07	
       931.080	     1.54507e+07	
       931.229	     1.67159e+07	
       931.379	     1.80077e+07	
       931.516	     1.91354e+07	
       931.528	     1.92315e+07	
       931.677	     2.03500e+07	
       931.838	     2.14654e+07	
       931.999	     2.24604e+07	
       932.160	     2.32596e+07	
       932.321	     2.39776e+07	
       932.483	     2.46091e+07	
       932.644	     2.51696e+07	
       932.805	     2.56220e+07	
       932.966	     2.59767e+07	
       933.127	     2.62659e+07	
       933.173	     2.63362e+07	
       933.265	     2.64600e+07	
       933.288	     2.64872e+07	
       933.403	     2.66008e+07	
       933.432	     2.66210e+07	
       933.542	     2.66757e+07	
       933.652	     2.66904e+07	
       933.762	     2.66624e+07	
       933.872	     2.65903e+07	
       933.982	     2.64597e+07	
       934.092	     2.62631e+07	
       934.202	     2.60113e+07	
       934.312	     2.57019e+07	
       934.413	     2.53802e+07	
       934.422	     2.53513e+07	
       934.533	     2.49689e+07	
       934.652	     2.44921e+07	
       934.771	     2.39486e+07	
       934.890	     2.33456e+07	
       935.009	     2.26705e+07	
       935.026	     2.25682e+07	
       935.128	     2.19653e+07	
       935.230	     2.13904e+07	
       935.332	     2.07816e+07	
       935.434	     2.01484e+07	
       935.537	     1.94845e+07	
       935.639	     1.87836e+07	
       935.741	     1.80518e+07	
       935.843	     1.72731e+07	
       935.945	     1.64336e+07	
       935.950	     1.63912e+07	
       936.047	     1.55455e+07	
       936.144	     1.46463e+07	
       936.338	     1.27228e+07	
       936.464	     1.13581e+07	
       936.532	     1.05645e+07	
       936.601	     9.73190e+06	
       936.645	     9.16754e+06	
       936.714	     8.23477e+06	
       936.737	     7.90591e+06	
       936.829	     6.50291e+06	
       936.887	     5.47809e+06	
       936.944	     4.35664e+06	
       936.973	     3.71804e+06	
       937.001	     3.15648e+06	
       937.015	     2.99296e+06	
       937.029	     2.90364e+06	
       937.043	     2.87313e+06	
       937.058	     2.86436e+06	
       937.072	     2.86282e+06	
       937.086	     2.86516e+06	
       937.101	     2.87481e+06	
       937.115	     2.90615e+06	
       937.143	     3.16094e+06	
       937.150	     3.27731e+06	
       937.186	     4.06346e+06	
       937.199	     4.34686e+06	
       937.250	     5.36741e+06	
       937.314	     6.51497e+06	
       937.341	     6.96108e+06	
       937.442	     8.45704e+06	
       937.543	     9.81223e+06	
       937.645	     1.10646e+07	
       937.746	     1.22286e+07	
       937.847	     1.33185e+07	
       937.896	     1.38308e+07	
       937.948	     1.43663e+07	
       938.000	     1.48881e+07	
       938.104	     1.59007e+07	
       938.208	     1.68604e+07	
       938.312	     1.77770e+07	
       938.416	     1.86377e+07	
       938.520	     1.94629e+07	
       938.543	     1.96428e+07	
       938.556	     1.97448e+07	
       938.624	     2.02699e+07	
       938.729	     2.10499e+07	
       938.914	     2.24113e+07	
       939.271	     2.51443e+07	
       939.628	     2.77818e+07	
       939.807	     2.90498e+07	
       939.986	     3.03611e+07	
       940.164	     3.16214e+07	
       940.343	     3.27819e+07	
       940.521	     3.38808e+07	
       940.580	     3.42295e+07	
       940.660	     3.46979e+07	
       940.700	     3.49279e+07	
       940.740	     3.51541e+07	
       940.901	     3.59697e+07	
       941.061	     3.67375e+07	
       941.221	     3.74604e+07	
       941.381	     3.81201e+07	
       941.541	     3.86805e+07	
       941.701	     3.92046e+07	
       942.022	     4.01439e+07	
       942.182	     4.05583e+07	
       942.342	     4.09205e+07	
       942.502	     4.12274e+07	
       942.662	     4.14857e+07	
       942.917	     4.17898e+07	
       942.982	     4.18454e+07	
       943.048	     4.18913e+07	
       943.178	     4.19588e+07	
       943.308	     4.19629e+07	
       943.438	     4.19101e+07	
       943.568	     4.18061e+07	
       943.698	     4.16494e+07	
       943.828	     4.14376e+07	
       943.958	     4.11715e+07	
       944.088	     4.08416e+07	
       944.219	     4.04398e+07	
       944.349	     3.99755e+07	
       944.479	     3.94509e+07	
       944.609	     3.88668e+07	
       944.691	     3.84691e+07	
       944.739	     3.82263e+07	
       944.845	     3.77176e+07	
       944.999	     3.69348e+07	
       945.153	     3.60944e+07	
       945.308	     3.51981e+07	
       945.616	     3.33320e+07	
       945.924	     3.13148e+07	
       946.232	     2.93609e+07	
       946.541	     2.74521e+07	
       947.108	     2.38279e+07	
       947.157	     2.34997e+07	
       947.208	     2.31539e+07	
       947.308	     2.24634e+07	
       947.509	     2.10180e+07	
       947.709	     1.94691e+07	
       947.735	     1.92569e+07	
       947.909	     1.77438e+07	
       948.083	     1.60766e+07	
       948.257	     1.42542e+07	
       948.317	     1.35882e+07	
       948.431	     1.22435e+07	
       948.546	     1.07750e+07	
       948.660	     9.15567e+06	
       948.727	     8.10986e+06	
       948.761	     7.54878e+06	
       948.771	     7.37203e+06	
       948.774	     7.31865e+06	
       948.777	     7.26487e+06	
       948.827	     6.30326e+06	
       948.835	     6.14062e+06	
       948.893	     4.85090e+06	
       948.922	     4.10022e+06	
       948.951	     3.43046e+06	
       948.966	     3.27781e+06	
       948.980	     3.22604e+06	
       948.994	     3.21627e+06	
       949.009	     3.21507e+06	
       949.023	     3.21529e+06	
       949.037	     3.21592e+06	
       949.052	     3.21806e+06	
       949.066	     3.22874e+06	
       949.095	     3.43524e+06	
       949.153	     4.86259e+06	
       949.230	     6.54730e+06	
       949.258	     7.09720e+06	
       949.269	     7.29644e+06	
       949.280	     7.49443e+06	
       949.330	     8.32956e+06	
       949.360	     8.80852e+06	
       949.430	     9.86702e+06	
       949.500	     1.08617e+07	
       949.640	     1.26891e+07	
       949.781	     1.43421e+07	
       949.795	     1.44995e+07	
       949.879	     1.54266e+07	
       949.921	     1.58768e+07	
       949.963	     1.63200e+07	
       950.131	     1.80022e+07	
       950.299	     1.95473e+07	
       950.467	     2.09615e+07	
       950.635	     2.22985e+07	
       950.719	     2.29463e+07	
       950.804	     2.35813e+07	
       950.888	     2.42067e+07	
       951.056	     2.54379e+07	
       951.392	     2.78552e+07	
       951.560	     2.90627e+07	
       951.728	     3.02758e+07	
       951.896	     3.15991e+07	
       952.065	     3.29399e+07	
       952.233	     3.43521e+07	
       952.401	     3.58453e+07	
       952.688	     3.84066e+07	
       952.737	     3.88665e+07	
       952.788	     3.93488e+07	
       952.888	     4.03035e+07	
       953.089	     4.22456e+07	
       953.289	     4.42349e+07	
       953.489	     4.64309e+07	
       953.689	     4.86702e+07	
       953.889	     5.09384e+07	
       954.290	     5.54375e+07	
       954.490	     5.76712e+07	
       954.690	     5.98929e+07	
       954.890	     6.20103e+07	
       955.090	     6.39082e+07	
       955.290	     6.57683e+07	
       955.491	     6.75920e+07	
       955.768	     7.00544e+07	
       955.891	     7.10682e+07	
       956.014	     7.20568e+07	
       956.260	     7.40348e+07	
       956.753	     7.78506e+07	
       957.245	     8.14602e+07	
       957.738	     8.48340e+07	
       958.156	     8.74795e+07	
       958.230	     8.79260e+07	
       958.439	     8.91606e+07	
       958.722	     9.07317e+07	
       959.006	     9.21797e+07	
       959.289	     9.34947e+07	
       959.572	     9.47294e+07	
       959.855	     9.58073e+07	
       960.139	     9.67262e+07	
       960.380	     9.73624e+07	
       960.414	     9.74412e+07	
       960.422	     9.74594e+07	
       960.430	     9.74773e+07	
       960.480	     9.76278e+07	
       960.580	     9.79084e+07	
       960.780	     9.83881e+07	
       961.180	     9.89932e+07	
       961.381	     9.91198e+07	
       961.581	     9.91176e+07	
       961.781	     9.89884e+07	
       961.981	     9.87349e+07	
       962.181	     9.83507e+07	
       962.381	     9.78295e+07	
       962.582	     9.71830e+07	
       962.782	     9.64098e+07	
       962.982	     9.54812e+07	
       963.182	     9.44338e+07	
       963.382	     9.32720e+07	
       963.582	     9.19821e+07	
       963.735	     9.09306e+07	
       963.983	     8.90915e+07	
       964.231	     8.70724e+07	
       964.479	     8.49317e+07	
       964.727	     8.26757e+07	
       964.976	     8.02752e+07	
       965.472	     7.52408e+07	
       965.968	     6.99545e+07	
       966.465	     6.46094e+07	
       966.883	     6.01474e+07	
       967.170	     5.71471e+07	
       967.458	     5.42239e+07	
       967.745	     5.13807e+07	
       968.032	     4.86353e+07	
       968.319	     4.59383e+07	
       968.606	     4.33464e+07	
       968.894	     4.08124e+07	
       969.065	     3.93283e+07	
       969.132	     3.87497e+07	
       969.181	     3.83284e+07	
       969.297	     3.73319e+07	
       969.529	     3.53335e+07	
       969.727	     3.36128e+07	
       969.927	     3.18674e+07	
       970.126	     3.00740e+07	
       970.324	     2.82105e+07	
       970.523	     2.62467e+07	
       970.568	     2.57775e+07	
       970.721	     2.41154e+07	
       970.874	     2.23185e+07	
       971.027	     2.03480e+07	
       971.181	     1.81339e+07	
       971.292	     1.63303e+07	
       971.320	     1.58433e+07	
       971.334	     1.55953e+07	
       971.348	     1.53437e+07	
       971.404	     1.42961e+07	
       971.447	     1.34494e+07	
       971.467	     1.30422e+07	
       971.516	     1.19990e+07	
       971.585	     1.04207e+07	
       971.644	     8.95341e+06	
       971.703	     7.35946e+06	
       971.732	     6.51893e+06	
       971.762	     5.61022e+06	
       971.778	     5.10213e+06	
       971.792	     4.66093e+06	
       971.806	     4.26239e+06	
       971.821	     4.00343e+06	
       971.827	     3.98549e+06	
       971.833	     3.98533e+06	
       971.836	     3.98542e+06	
       971.839	     3.98555e+06	
       971.851	     3.98637e+06	
       971.866	     4.12871e+06	
       971.880	     4.48648e+06	
       971.910	     5.42848e+06	
       971.969	     7.20515e+06	
       972.037	     9.06004e+06	
       972.087	     1.03155e+07	
       972.137	     1.14948e+07	
       972.150	     1.17882e+07	
       972.237	     1.36413e+07	
       972.324	     1.53193e+07	
       972.499	     1.82391e+07	
       972.548	     1.89718e+07	
       972.673	     2.06997e+07	
       972.798	     2.22563e+07	
       972.923	     2.36715e+07	
       973.048	     2.49655e+07	
       973.173	     2.61668e+07	
       973.298	     2.72925e+07	
       973.423	     2.83704e+07	
       973.548	     2.94027e+07	
       973.601	     2.98302e+07	
       973.673	     3.04009e+07	
       973.746	     3.09644e+07	
       973.890	     3.20709e+07	
       974.178	     3.41865e+07	
       974.466	     3.62772e+07	
       975.043	     4.03770e+07	
       975.556	     4.39914e+07	
       975.598	     4.42776e+07	
       975.619	     4.44212e+07	
       975.640	     4.45654e+07	
       975.724	     4.51481e+07	
       975.892	     4.63426e+07	
       976.228	     4.87214e+07	
       976.397	     4.99667e+07	
       976.565	     5.12702e+07	
       976.733	     5.26503e+07	
       976.901	     5.41237e+07	
       977.069	     5.57086e+07	
       977.237	     5.74324e+07	
       977.405	     5.90742e+07	
       977.574	     6.07041e+07	
       977.742	     6.24527e+07	
       977.910	     6.43389e+07	
       978.078	     6.61764e+07	
       978.246	     6.80416e+07	
       978.414	     7.00412e+07	
       978.582	     7.21988e+07	
       978.750	     7.45739e+07	
       978.919	     7.71965e+07	
       979.087	     8.00980e+07	
       979.105	     8.04282e+07	
       979.205	     8.23399e+07	
       979.255	     8.33480e+07	
       979.305	     8.43935e+07	
       979.505	     8.81591e+07	
       979.705	     9.24162e+07	
       979.905	     9.72898e+07	
       980.105	     1.01647e+08	
       980.306	     1.05718e+08	
       980.506	     1.10152e+08	
       980.706	     1.14668e+08	
       980.906	     1.18433e+08	
       981.106	     1.22381e+08	
       981.506	     1.30505e+08	
       981.907	     1.38879e+08	
       982.307	     1.47112e+08	
       982.707	     1.55538e+08	
       983.108	     1.64299e+08	
       983.308	     1.68853e+08	
       983.508	     1.73679e+08	
       983.708	     1.78713e+08	
       983.863	     1.82742e+08	
       983.893	     1.83537e+08	
       983.908	     1.83936e+08	
