# Koester WD models
# teff = 18750 K (value for the effective temperature for the model. Temperatures are given in K)
# logg = 8 log(cm/s2) (value for Log(G) for the model.)
#
#   WAVELENGTH	#           FLUX	
#   (ANGSTROM)	#  (ERG/CM2/S/A)	
##############	################	
       899.230	     4.98316e+06	
       900.429	     5.03626e+06	
       901.419	     5.08036e+06	
       902.827	     5.14357e+06	
       904.235	     5.20735e+06	
       904.863	     5.23594e+06	
       907.051	     5.33643e+06	
       908.450	     5.40134e+06	
       909.241	     5.43825e+06	
       910.032	     5.47529e+06	
       911.193	     5.53030e+06	
       911.613	     5.55009e+06	
       911.824	     5.55993e+06	
       911.929	     5.56480e+06	
       912.034	     5.56960e+06	
       912.139	     5.67478e+06	
       912.244	     5.77924e+06	
       912.349	     5.88291e+06	
       912.454	     5.98561e+06	
       912.559	     6.08743e+06	
       912.664	     6.18693e+06	
       912.770	     6.28425e+06	
       912.875	     6.37781e+06	
       912.886	     6.38727e+06	
       912.980	     6.46263e+06	
       913.085	     6.52320e+06	
       913.284	     6.54887e+06	
       913.433	     6.56238e+06	
       913.483	     6.54585e+06	
       913.533	     6.54928e+06	
       913.633	     6.60777e+06	
       913.645	     6.60740e+06	
       913.734	     6.53687e+06	
       913.822	     6.45302e+06	
       913.831	     6.45745e+06	
       913.998	     6.61607e+06	
       914.165	     6.17062e+06	
       914.332	     6.67965e+06	
       914.423	     6.50872e+06	
       914.499	     6.00179e+06	
       914.575	     5.69706e+06	
       914.728	     6.60705e+06	
       914.880	     6.60891e+06	
       914.982	     5.68503e+06	
       915.032	     5.21878e+06	
       915.082	     5.09598e+06	
       915.182	     5.97691e+06	
       915.282	     6.91263e+06	
       915.382	     7.11718e+06	
       915.482	     6.53363e+06	
       915.522	     6.08831e+06	
       915.583	     5.29666e+06	
       915.593	     5.15165e+06	
       915.643	     4.58792e+06	
       915.693	     4.49144e+06	
       915.793	     5.66351e+06	
       915.893	     6.99922e+06	
       915.993	     7.72634e+06	
       916.093	     7.73627e+06	
       916.193	     7.01159e+06	
       916.293	     5.64818e+06	
       916.343	     4.81217e+06	
       916.393	     4.12186e+06	
       916.443	     3.97314e+06	
       916.544	     5.31407e+06	
       916.644	     6.98621e+06	
       916.744	     8.20804e+06	
       916.844	     8.86680e+06	
       916.944	     8.90365e+06	
       917.044	     8.28724e+06	
       917.144	     7.08115e+06	
       917.244	     5.41491e+06	
       917.294	     4.45588e+06	
       917.344	     3.70152e+06	
       917.394	     3.57237e+06	
       917.495	     5.08046e+06	
       917.595	     6.95165e+06	
       917.695	     8.49421e+06	
       917.795	     9.66816e+06	
       917.895	     1.03920e+07	
       917.995	     1.06126e+07	
       918.095	     1.03279e+07	
       918.195	     9.49163e+06	
       918.295	     8.26613e+06	
       918.395	     6.67218e+06	
       918.496	     4.65292e+06	
       918.546	     3.70158e+06	
       918.596	     3.24640e+06	
       918.646	     3.52590e+06	
       918.746	     5.49763e+06	
       918.846	     7.38789e+06	
       918.946	     9.01461e+06	
       919.046	     1.04795e+07	
       919.146	     1.16203e+07	
       919.196	     1.20459e+07	
       919.246	     1.23846e+07	
       919.296	     1.26225e+07	
       919.397	     1.28155e+07	
       919.497	     1.26907e+07	
       919.597	     1.21851e+07	
       919.697	     1.13193e+07	
       919.797	     1.01162e+07	
       919.897	     8.64381e+06	
       919.997	     6.92360e+06	
       920.097	     4.82300e+06	
       920.147	     3.72703e+06	
       920.197	     3.09665e+06	
       920.247	     3.19044e+06	
       920.347	     5.16993e+06	
       920.448	     7.20480e+06	
       920.548	     8.97116e+06	
       920.648	     1.05593e+07	
       920.748	     1.19517e+07	
       920.848	     1.31422e+07	
       920.948	     1.40929e+07	
       921.048	     1.47871e+07	
       921.148	     1.52690e+07	
       921.248	     1.55083e+07	
       921.349	     1.55507e+07	
       921.449	     1.53735e+07	
       921.549	     1.49589e+07	
       921.649	     1.43088e+07	
       921.749	     1.34214e+07	
       921.849	     1.23015e+07	
       921.949	     1.10087e+07	
       922.049	     9.45978e+06	
       922.149	     7.72078e+06	
       922.249	     5.71003e+06	
       922.294	     4.58974e+06	
       922.350	     3.36509e+06	
       922.405	     2.96469e+06	
       922.515	     4.59967e+06	
       922.625	     7.09447e+06	
       922.660	     7.76332e+06	
       922.735	     9.12765e+06	
       922.810	     1.03873e+07	
       922.960	     1.25985e+07	
       923.110	     1.45327e+07	
       923.260	     1.61350e+07	
       923.411	     1.74285e+07	
       923.561	     1.83730e+07	
       923.711	     1.89943e+07	
       923.861	     1.93283e+07	
       924.011	     1.93992e+07	
       924.161	     1.91700e+07	
       924.312	     1.86167e+07	
       924.462	     1.77009e+07	
       924.612	     1.64232e+07	
       924.762	     1.48933e+07	
       924.912	     1.30386e+07	
       925.062	     1.08973e+07	
       925.212	     8.26691e+06	
       925.241	     7.67218e+06	
       925.363	     4.92928e+06	
       925.484	     2.95541e+06	
       925.605	     4.94078e+06	
       925.726	     7.70714e+06	
       925.847	     1.00031e+07	
       925.968	     1.19705e+07	
       926.089	     1.36986e+07	
       926.210	     1.52860e+07	
       926.282	     1.61275e+07	
       926.332	     1.67218e+07	
       926.382	     1.72884e+07	
       926.482	     1.83994e+07	
       926.682	     2.03159e+07	
       926.882	     2.18483e+07	
       927.082	     2.29993e+07	
       927.283	     2.38555e+07	
       927.483	     2.44481e+07	
       927.683	     2.47625e+07	
       927.883	     2.48312e+07	
       927.984	     2.47668e+07	
       928.083	     2.45982e+07	
       928.182	     2.43130e+07	
       928.381	     2.34436e+07	
       928.579	     2.21651e+07	
       928.777	     2.05922e+07	
       928.861	     1.99150e+07	
       928.975	     1.89073e+07	
       929.089	     1.77962e+07	
       929.145	     1.71975e+07	
       929.203	     1.65444e+07	
       929.261	     1.58767e+07	
       929.378	     1.44273e+07	
       929.444	     1.35275e+07	
       929.494	     1.28204e+07	
       929.544	     1.20745e+07	
       929.644	     1.04283e+07	
       929.694	     9.50860e+06	
       929.705	     9.29877e+06	
       929.744	     8.53310e+06	
       929.794	     7.44432e+06	
       929.827	     6.68214e+06	
       929.883	     5.25419e+06	
       929.889	     5.08338e+06	
       929.939	     3.64444e+06	
       929.989	     3.05340e+06	
       930.039	     3.07845e+06	
       930.089	     3.84006e+06	
       930.139	     5.32013e+06	
       930.189	     6.60784e+06	
       930.239	     7.76291e+06	
       930.289	     8.83903e+06	
       930.301	     9.07625e+06	
       930.390	     1.07274e+07	
       930.478	     1.21925e+07	
       930.654	     1.47541e+07	
       930.729	     1.57449e+07	
       930.830	     1.69890e+07	
       930.931	     1.81792e+07	
       931.032	     1.92807e+07	
       931.133	     2.03248e+07	
       931.234	     2.13203e+07	
       931.335	     2.23742e+07	
       931.437	     2.34175e+07	
       931.440	     2.34477e+07	
       931.639	     2.54286e+07	
       931.838	     2.72107e+07	
       932.037	     2.87421e+07	
       932.236	     2.99549e+07	
       932.436	     3.10136e+07	
       932.635	     3.19327e+07	
       932.834	     3.26625e+07	
       933.033	     3.32195e+07	
       933.061	     3.32871e+07	
       933.232	     3.36417e+07	
       933.265	     3.36980e+07	
       933.403	     3.38880e+07	
       933.432	     3.39163e+07	
       933.542	     3.39939e+07	
       933.652	     3.40187e+07	
       933.762	     3.39883e+07	
       933.872	     3.38997e+07	
       933.982	     3.37266e+07	
       934.092	     3.34561e+07	
       934.202	     3.31089e+07	
       934.312	     3.26854e+07	
       934.413	     3.22437e+07	
       934.422	     3.22038e+07	
       934.533	     3.16729e+07	
       934.652	     3.10130e+07	
       934.771	     3.02670e+07	
       934.890	     2.94472e+07	
       935.009	     2.85471e+07	
       935.026	     2.84122e+07	
       935.128	     2.76339e+07	
       935.230	     2.69174e+07	
       935.332	     2.61662e+07	
       935.434	     2.53871e+07	
       935.537	     2.45710e+07	
       935.639	     2.37164e+07	
       935.741	     2.28348e+07	
       935.746	     2.27905e+07	
       935.843	     2.19056e+07	
       935.945	     2.09111e+07	
       936.144	     1.88055e+07	
       936.343	     1.64873e+07	
       936.484	     1.46262e+07	
       936.542	     1.37808e+07	
       936.601	     1.28781e+07	
       936.605	     1.28138e+07	
       936.717	     1.08700e+07	
       936.829	     8.58842e+06	
       936.891	     7.08470e+06	
       936.941	     5.68594e+06	
       936.991	     4.00830e+06	
       937.041	     3.24985e+06	
       937.091	     3.23565e+06	
       937.141	     3.69703e+06	
       937.168	     4.53426e+06	
       937.191	     5.32236e+06	
       937.241	     6.79332e+06	
       937.314	     8.60209e+06	
       937.377	     9.95414e+06	
       937.460	     1.15484e+07	
       937.543	     1.29806e+07	
       937.710	     1.54771e+07	
       937.752	     1.60472e+07	
       937.876	     1.76207e+07	
       938.000	     1.91009e+07	
       938.124	     2.05120e+07	
       938.248	     2.18470e+07	
       938.372	     2.31069e+07	
       938.496	     2.43035e+07	
       938.620	     2.54780e+07	
       938.819	     2.72943e+07	
       938.869	     2.77499e+07	
       938.919	     2.82031e+07	
       939.019	     2.91071e+07	
       939.167	     3.06368e+07	
       939.219	     3.11905e+07	
       939.259	     3.16129e+07	
       939.271	     3.17395e+07	
       939.375	     3.28243e+07	
       939.583	     3.49622e+07	
       939.629	     3.54249e+07	
       940.000	     3.92366e+07	
       940.185	     4.11373e+07	
       940.370	     4.28790e+07	
       940.555	     4.45594e+07	
       940.690	     4.57542e+07	
       940.740	     4.61864e+07	
       940.790	     4.65923e+07	
       940.891	     4.73887e+07	
       941.091	     4.89143e+07	
       941.291	     5.03396e+07	
       941.491	     5.15388e+07	
       941.691	     5.26072e+07	
       941.891	     5.35861e+07	
       942.092	     5.44724e+07	
       942.292	     5.52537e+07	
       942.337	     5.54042e+07	
       942.492	     5.58745e+07	
       942.515	     5.59364e+07	
       942.692	     5.63643e+07	
       942.870	     5.66797e+07	
       943.048	     5.68760e+07	
       943.225	     5.69580e+07	
       943.403	     5.68490e+07	
       943.580	     5.65810e+07	
       943.758	     5.61478e+07	
       943.935	     5.55471e+07	
       944.114	     5.47507e+07	
       944.291	     5.37363e+07	
       944.469	     5.25472e+07	
       944.646	     5.11929e+07	
       944.824	     4.97660e+07	
       945.051	     4.79024e+07	
       945.179	     4.67780e+07	
       945.308	     4.56112e+07	
       945.564	     4.32230e+07	
       945.820	     4.07062e+07	
       946.076	     3.83780e+07	
       946.333	     3.61362e+07	
       946.589	     3.40558e+07	
       946.845	     3.19629e+07	
       947.044	     3.03232e+07	
       947.101	     2.98535e+07	
       947.158	     2.93814e+07	
       947.272	     2.84270e+07	
       947.386	     2.74514e+07	
       947.501	     2.64498e+07	
       947.615	     2.54158e+07	
       947.729	     2.43395e+07	
       947.831	     2.33215e+07	
       947.843	     2.31973e+07	
       947.957	     2.19845e+07	
       948.083	     2.05568e+07	
       948.209	     1.90344e+07	
       948.335	     1.73923e+07	
       948.377	     1.68044e+07	
       948.461	     1.55547e+07	
       948.546	     1.41830e+07	
       948.651	     1.22636e+07	
       948.661	     1.20667e+07	
       948.714	     1.09749e+07	
       948.777	     9.55154e+06	
       948.835	     8.02746e+06	
       948.893	     6.21087e+06	
       948.901	     5.92611e+06	
       948.951	     4.00468e+06	
       949.001	     3.62028e+06	
       949.049	     3.62323e+06	
       949.051	     3.62414e+06	
       949.101	     4.16088e+06	
       949.153	     6.22538e+06	
       949.207	     7.94003e+06	
       949.257	     9.29129e+06	
       949.307	     1.04878e+07	
       949.314	     1.06412e+07	
       949.407	     1.25746e+07	
       949.500	     1.42931e+07	
       949.687	     1.72390e+07	
       949.783	     1.85703e+07	
       949.873	     1.97403e+07	
       949.963	     2.08579e+07	
       950.143	     2.29581e+07	
       950.323	     2.48848e+07	
       950.503	     2.66657e+07	
       950.683	     2.83663e+07	
       950.814	     2.95610e+07	
       950.864	     3.00160e+07	
       950.914	     3.04692e+07	
       951.014	     3.13743e+07	
       951.214	     3.31982e+07	
       951.414	     3.50401e+07	
       951.614	     3.69197e+07	
       951.814	     3.89083e+07	
       952.015	     4.10565e+07	
       952.092	     4.19088e+07	
       952.215	     4.33753e+07	
       952.254	     4.38758e+07	
       952.415	     4.60017e+07	
       952.577	     4.81741e+07	
       952.738	     5.04229e+07	
       952.899	     5.27907e+07	
       953.061	     5.52452e+07	
       953.223	     5.77855e+07	
       953.385	     6.05746e+07	
       953.546	     6.35843e+07	
       953.708	     6.67026e+07	
       953.869	     6.99133e+07	
       954.031	     7.32019e+07	
       954.355	     7.98464e+07	
       954.678	     8.67387e+07	
       955.001	     9.33543e+07	
       955.281	     9.87594e+07	
       955.324	     9.95847e+07	
       955.648	     1.05719e+08	
       956.014	     1.12173e+08	
       956.380	     1.18371e+08	
       956.747	     1.24431e+08	
       957.113	     1.30305e+08	
       957.479	     1.35964e+08	
       957.846	     1.41342e+08	
       958.212	     1.46397e+08	
       958.578	     1.51124e+08	
       958.600	     1.51395e+08	
       958.945	     1.55413e+08	
       959.289	     1.58974e+08	
       959.633	     1.62229e+08	
       959.977	     1.64938e+08	
       960.214	     1.66455e+08	
       960.322	     1.67041e+08	
       960.430	     1.67561e+08	
       960.646	     1.68773e+08	
       960.862	     1.69678e+08	
       961.078	     1.70250e+08	
       961.294	     1.70497e+08	
       961.511	     1.70401e+08	
       961.727	     1.69935e+08	
       961.943	     1.69123e+08	
       962.159	     1.67956e+08	
       962.375	     1.66404e+08	
       962.592	     1.64521e+08	
       962.808	     1.62285e+08	
       963.024	     1.59648e+08	
       963.240	     1.56710e+08	
       963.456	     1.53480e+08	
       963.672	     1.49949e+08	
       963.889	     1.46185e+08	
       963.979	     1.44550e+08	
       964.105	     1.42183e+08	
       964.231	     1.39704e+08	
       964.483	     1.34683e+08	
       964.735	     1.29470e+08	
       964.988	     1.24034e+08	
       965.492	     1.12934e+08	
       965.996	     1.01828e+08	
       966.249	     9.64039e+07	
       966.501	     9.11690e+07	
       966.753	     8.61123e+07	
       967.005	     8.12139e+07	
       967.257	     7.65898e+07	
       967.510	     7.21850e+07	
       967.762	     6.80227e+07	
       967.964	     6.48695e+07	
       968.014	     6.41045e+07	
       968.064	     6.33383e+07	
       968.164	     6.18372e+07	
       968.364	     5.89476e+07	
       968.564	     5.61949e+07	
       968.765	     5.35491e+07	
       968.965	     5.10006e+07	
       969.033	     5.01543e+07	
       969.165	     4.85376e+07	
       969.196	     4.81622e+07	
       969.297	     4.69511e+07	
       969.561	     4.38331e+07	
       969.709	     4.21168e+07	
       969.927	     3.96221e+07	
       970.001	     3.87720e+07	
       970.292	     3.54004e+07	
       970.437	     3.36754e+07	
       970.583	     3.18931e+07	
       970.728	     3.00048e+07	
       970.874	     2.80001e+07	
       970.983	     2.63946e+07	
       971.020	     2.58313e+07	
       971.166	     2.34149e+07	
       971.348	     1.98535e+07	
       971.475	     1.68184e+07	
       971.530	     1.53020e+07	
       971.585	     1.36459e+07	
       971.645	     1.16577e+07	
       971.695	     9.84770e+06	
       971.745	     7.86520e+06	
       971.795	     5.64978e+06	
       971.845	     4.47372e+06	
       971.895	     6.21112e+06	
       971.903	     6.57369e+06	
       971.945	     8.37436e+06	
       971.995	     1.03226e+07	
       972.087	     1.35044e+07	
       972.218	     1.72920e+07	
       972.271	     1.86130e+07	
       972.324	     1.98301e+07	
       972.431	     2.20227e+07	
       972.537	     2.39512e+07	
       972.643	     2.56821e+07	
       972.699	     2.65336e+07	
       972.749	     2.72622e+07	
       972.799	     2.79649e+07	
       972.899	     2.92979e+07	
       972.999	     3.05474e+07	
       973.099	     3.17291e+07	
       973.199	     3.28538e+07	
       973.399	     3.49804e+07	
       973.453	     3.55358e+07	
       973.599	     3.70039e+07	
       973.603	     3.70438e+07	
       973.746	     3.84383e+07	
       974.038	     4.12491e+07	
       974.622	     4.68946e+07	
       975.131	     5.18617e+07	
       975.640	     5.69514e+07	
       975.894	     5.96051e+07	
       976.149	     6.23066e+07	
       976.404	     6.51679e+07	
       976.531	     6.66944e+07	
       976.658	     6.83023e+07	
       976.786	     7.00057e+07	
       976.913	     7.18143e+07	
       977.040	     7.37483e+07	
       977.167	     7.58311e+07	
       977.294	     7.80786e+07	
       977.422	     8.00396e+07	
       977.549	     8.21181e+07	
       977.677	     8.43326e+07	
       977.804	     8.66985e+07	
       977.931	     8.92388e+07	
       978.058	     9.16701e+07	
       978.186	     9.41441e+07	
       978.313	     9.67771e+07	
       978.440	     9.95869e+07	
       978.567	     1.02605e+08	
       978.694	     1.05882e+08	
       978.822	     1.09464e+08	
       978.950	     1.13368e+08	
       979.077	     1.17652e+08	
       979.103	     1.18590e+08	
       979.204	     1.22382e+08	
       979.305	     1.26498e+08	
       979.406	     1.30203e+08	
       979.507	     1.34172e+08	
       979.608	     1.38442e+08	
       979.709	     1.43046e+08	
       979.809	     1.48025e+08	
       979.910	     1.53428e+08	
       980.011	     1.58595e+08	
       980.112	     1.62772e+08	
       980.214	     1.67152e+08	
       980.315	     1.71749e+08	
       980.416	     1.76584e+08	
       980.517	     1.81678e+08	
       980.618	     1.87051e+08	
       980.719	     1.91747e+08	
       980.819	     1.95991e+08	
       980.920	     2.00361e+08	
       981.021	     2.04854e+08	
       981.122	     2.09481e+08	
       981.324	     2.19168e+08	
       981.729	     2.38207e+08	
       982.132	     2.58368e+08	
       982.536	     2.78317e+08	
       982.764	     2.90130e+08	
       982.940	     2.99395e+08	
       983.054	     3.05548e+08	
       983.344	     3.21693e+08	
       983.633	     3.39320e+08	
       983.923	     3.58010e+08	
       984.503	     3.95483e+08	
       984.705	     4.09060e+08	
       985.183	     4.38978e+08	
       985.662	     4.70488e+08	
       986.140	     5.03421e+08	
       986.379	     5.19491e+08	
       986.499	     5.27624e+08	
       986.618	     5.35824e+08	
       986.737	     5.43844e+08	
       986.857	     5.49066e+08	
       986.977	     5.53567e+08	
       987.097	     5.57981e+08	
       987.216	     5.62314e+08	
       987.336	     5.66580e+08	
       987.455	     5.70834e+08	
       987.575	     5.74707e+08	
       987.814	     5.82172e+08	
       988.053	     5.89325e+08	
       988.293	     6.00676e+08	
       988.532	     6.14027e+08	
       988.651	     6.20706e+08	
       988.771	     6.27389e+08	
       988.890	     6.32566e+08	
       989.010	     6.36895e+08	
       989.129	     6.41158e+08	
