# Koester WD models
# teff = 18750 K (value for the effective temperature for the model. Temperatures are given in K)
# logg = 9 log(cm/s2) (value for Log(G) for the model.)
#
#   WAVELENGTH	#           FLUX	
#   (ANGSTROM)	#  (ERG/CM2/S/A)	
##############	################	
       899.230	     5.21423e+06	
       904.235	     5.44755e+06	
       908.450	     5.64946e+06	
       909.241	     5.68788e+06	
       910.032	     5.72640e+06	
       911.193	     5.78308e+06	
       911.613	     5.80346e+06	
       911.824	     5.81361e+06	
       911.929	     5.81864e+06	
       912.034	     5.82363e+06	
       912.139	     5.86988e+06	
       912.244	     5.91571e+06	
       912.349	     5.96092e+06	
       912.454	     6.00572e+06	
       912.559	     6.04998e+06	
       912.664	     6.09346e+06	
       912.770	     6.13619e+06	
       912.875	     6.17769e+06	
       912.886	     6.18193e+06	
       913.037	     6.23773e+06	
       913.085	     6.25447e+06	
       913.284	     6.31869e+06	
       913.531	     6.38456e+06	
       913.649	     6.40345e+06	
       913.736	     6.42164e+06	
       913.779	     6.43015e+06	
       913.822	     6.43803e+06	
       913.994	     6.43785e+06	
       914.165	     6.44818e+06	
       914.336	     6.44601e+06	
       914.439	     6.41092e+06	
       914.507	     6.37900e+06	
       914.575	     6.36832e+06	
       914.712	     6.41689e+06	
       914.848	     6.39298e+06	
       914.897	     6.32883e+06	
       914.984	     6.20449e+06	
       915.071	     6.13654e+06	
       915.245	     6.35126e+06	
       915.419	     6.34573e+06	
       915.544	     5.99699e+06	
       915.594	     5.83931e+06	
       915.609	     5.79256e+06	
       915.643	     5.72866e+06	
       915.677	     5.72093e+06	
       915.745	     5.85609e+06	
       915.881	     6.41205e+06	
       916.017	     6.72049e+06	
       916.153	     6.53351e+06	
       916.289	     5.86171e+06	
       916.379	     5.40316e+06	
       916.421	     5.32022e+06	
       916.425	     5.31956e+06	
       916.429	     5.32026e+06	
       916.479	     5.44008e+06	
       916.580	     6.05869e+06	
       916.680	     6.74154e+06	
       916.780	     7.21121e+06	
       916.880	     7.39974e+06	
       916.980	     7.25626e+06	
       917.080	     6.79131e+06	
       917.180	     6.03933e+06	
       917.182	     6.02328e+06	
       917.280	     5.15055e+06	
       917.378	     4.68088e+06	
       917.575	     6.15752e+06	
       917.771	     7.77720e+06	
       917.967	     8.43295e+06	
       918.163	     7.86187e+06	
       918.359	     6.21514e+06	
       918.510	     4.59901e+06	
       918.556	     4.21476e+06	
       918.602	     4.07125e+06	
       918.694	     4.61450e+06	
       918.878	     6.72131e+06	
       919.062	     8.52188e+06	
       919.201	     9.46904e+06	
       919.241	     9.65235e+06	
       919.246	     9.67205e+06	
       919.251	     9.69106e+06	
       919.301	     9.84330e+06	
       919.402	     9.94616e+06	
       919.502	     9.82514e+06	
       919.602	     9.42292e+06	
       919.702	     8.72936e+06	
       919.802	     7.91210e+06	
       919.902	     6.88097e+06	
       920.002	     5.73498e+06	
       920.102	     4.48258e+06	
       920.165	     3.82011e+06	
       920.189	     3.67613e+06	
       920.202	     3.63878e+06	
       920.215	     3.62552e+06	
       920.265	     3.82420e+06	
       920.366	     4.97889e+06	
       920.466	     6.22529e+06	
       920.566	     7.39402e+06	
       920.666	     8.50530e+06	
       920.766	     9.51303e+06	
       920.866	     1.04455e+07	
       920.966	     1.11724e+07	
       921.066	     1.17351e+07	
       921.166	     1.21118e+07	
       921.266	     1.22800e+07	
       921.367	     1.22709e+07	
       921.467	     1.20698e+07	
       921.567	     1.16409e+07	
       921.667	     1.10293e+07	
       921.767	     1.02609e+07	
       921.867	     9.30489e+06	
       921.967	     8.30204e+06	
       922.067	     7.17986e+06	
       922.167	     5.95062e+06	
       922.267	     4.63482e+06	
       922.331	     3.78072e+06	
       922.368	     3.46090e+06	
       922.405	     3.35736e+06	
       922.479	     3.78637e+06	
       922.627	     5.79093e+06	
       922.670	     6.36389e+06	
       922.740	     7.22208e+06	
       922.775	     7.64133e+06	
       922.810	     8.06629e+06	
       922.950	     9.63376e+06	
       923.090	     1.11646e+07	
       923.230	     1.25148e+07	
       923.371	     1.36944e+07	
       923.511	     1.45806e+07	
       923.651	     1.52418e+07	
       923.791	     1.56270e+07	
       923.931	     1.57875e+07	
       924.071	     1.57189e+07	
       924.211	     1.53895e+07	
       924.352	     1.47876e+07	
       924.492	     1.39358e+07	
       924.632	     1.28163e+07	
       924.772	     1.15032e+07	
       924.912	     1.00344e+07	
       925.052	     8.45996e+06	
       925.192	     6.74849e+06	
       925.333	     4.77136e+06	
       925.434	     3.42229e+06	
       925.462	     3.27338e+06	
       925.473	     3.24856e+06	
       925.484	     3.24184e+06	
       925.534	     3.42572e+06	
       925.634	     4.76944e+06	
       925.734	     6.23757e+06	
       925.834	     7.53831e+06	
       925.934	     8.76369e+06	
       926.034	     9.94179e+06	
       926.134	     1.11071e+07	
       926.232	     1.21829e+07	
       926.301	     1.29150e+07	
       926.335	     1.32909e+07	
       926.369	     1.36530e+07	
       926.505	     1.49903e+07	
       926.641	     1.62071e+07	
       926.777	     1.72996e+07	
       926.913	     1.82352e+07	
       927.049	     1.90081e+07	
       927.185	     1.96419e+07	
       927.322	     2.01286e+07	
       927.458	     2.04919e+07	
       927.594	     2.07264e+07	
       927.730	     2.08534e+07	
       927.866	     2.08650e+07	
       928.002	     2.07546e+07	
       928.006	     2.07494e+07	
       928.094	     2.05820e+07	
       928.138	     2.04700e+07	
       928.182	     2.03406e+07	
       928.359	     1.96487e+07	
       928.535	     1.86969e+07	
       928.711	     1.74492e+07	
       928.887	     1.60253e+07	
       928.985	     1.51763e+07	
       929.037	     1.47072e+07	
       929.063	     1.44642e+07	
       929.089	     1.42149e+07	
       929.125	     1.38581e+07	
       929.193	     1.31488e+07	
       929.261	     1.24343e+07	
       929.398	     1.09461e+07	
       929.493	     9.83397e+06	
       929.525	     9.45180e+06	
       929.534	     9.34662e+06	
       929.543	     9.24021e+06	
       929.593	     8.63511e+06	
       929.617	     8.33411e+06	
       929.655	     7.84817e+06	
       929.693	     7.34291e+06	
       929.769	     6.30229e+06	
       929.827	     5.41334e+06	
       929.883	     4.49804e+06	
       929.910	     4.04489e+06	
       929.939	     3.60897e+06	
       929.954	     3.46273e+06	
       929.968	     3.35745e+06	
       929.982	     3.30693e+06	
       929.996	     3.28180e+06	
       930.010	     3.27414e+06	
       930.024	     3.28271e+06	
       930.038	     3.30876e+06	
       930.052	     3.36025e+06	
       930.081	     3.61403e+06	
       930.137	     4.50907e+06	
       930.201	     5.56056e+06	
       930.247	     6.26990e+06	
       930.249	     6.30034e+06	
       930.251	     6.33075e+06	
       930.301	     7.04043e+06	
       930.326	     7.35868e+06	
       930.402	     8.36980e+06	
       930.478	     9.32261e+06	
       930.630	     1.11647e+07	
       930.633	     1.11998e+07	
       930.782	     1.28902e+07	
       930.931	     1.45436e+07	
       931.080	     1.60441e+07	
       931.229	     1.75018e+07	
       931.379	     1.89651e+07	
       931.516	     2.02093e+07	
       931.528	     2.03139e+07	
       931.677	     2.15335e+07	
       931.838	     2.27713e+07	
       931.999	     2.38767e+07	
       932.160	     2.47908e+07	
       932.321	     2.56045e+07	
       932.483	     2.63151e+07	
       932.644	     2.69375e+07	
       932.805	     2.74356e+07	
       932.966	     2.78255e+07	
       933.127	     2.81441e+07	
       933.173	     2.82217e+07	
       933.265	     2.83586e+07	
       933.288	     2.83889e+07	
       933.403	     2.85161e+07	
       933.432	     2.85377e+07	
       933.542	     2.85943e+07	
       933.652	     2.86064e+07	
       933.762	     2.85687e+07	
       933.872	     2.84817e+07	
       933.982	     2.83351e+07	
       934.092	     2.81228e+07	
       934.202	     2.78498e+07	
       934.312	     2.75141e+07	
       934.413	     2.71643e+07	
       934.422	     2.71329e+07	
       934.533	     2.67171e+07	
       934.652	     2.62006e+07	
       934.771	     2.56142e+07	
       934.890	     2.49801e+07	
       935.009	     2.42676e+07	
       935.026	     2.41592e+07	
       935.128	     2.35043e+07	
       935.230	     2.28492e+07	
       935.332	     2.21505e+07	
       935.434	     2.14255e+07	
       935.537	     2.06679e+07	
       935.639	     1.98638e+07	
       935.741	     1.90186e+07	
       935.843	     1.81226e+07	
       935.945	     1.71651e+07	
       935.950	     1.71167e+07	
       936.047	     1.61642e+07	
       936.144	     1.51700e+07	
       936.338	     1.30405e+07	
       936.464	     1.15784e+07	
       936.532	     1.07486e+07	
       936.601	     9.88851e+06	
       936.645	     9.32051e+06	
       936.714	     8.39889e+06	
       936.737	     8.08074e+06	
       936.829	     6.75819e+06	
       936.887	     5.79049e+06	
       936.944	     4.75474e+06	
       936.973	     4.20571e+06	
       937.001	     3.73162e+06	
       937.015	     3.59697e+06	
       937.029	     3.50822e+06	
       937.043	     3.47658e+06	
       937.058	     3.46279e+06	
       937.072	     3.46002e+06	
       937.086	     3.46373e+06	
       937.101	     3.47856e+06	
       937.115	     3.51120e+06	
       937.143	     3.73677e+06	
       937.150	     3.84562e+06	
       937.186	     4.49936e+06	
       937.199	     4.74764e+06	
       937.250	     5.68660e+06	
       937.314	     6.77243e+06	
       937.341	     7.18495e+06	
       937.442	     8.61833e+06	
       937.543	     9.97028e+06	
       937.645	     1.12670e+07	
       937.746	     1.24985e+07	
       937.847	     1.36812e+07	
       937.896	     1.42482e+07	
       937.948	     1.48441e+07	
       938.000	     1.54248e+07	
       938.104	     1.65448e+07	
       938.208	     1.76272e+07	
       938.312	     1.86714e+07	
       938.416	     1.96609e+07	
       938.520	     2.06099e+07	
       938.543	     2.08158e+07	
       938.556	     2.09321e+07	
       938.624	     2.15312e+07	
       938.729	     2.24172e+07	
       938.914	     2.39680e+07	
       939.093	     2.54332e+07	
       939.271	     2.69148e+07	
       939.449	     2.83191e+07	
       939.628	     2.96932e+07	
       939.807	     3.10310e+07	
       939.986	     3.23920e+07	
       940.164	     3.36826e+07	
       940.343	     3.48773e+07	
       940.521	     3.59964e+07	
       940.580	     3.63482e+07	
       940.660	     3.68182e+07	
       940.700	     3.70482e+07	
       940.740	     3.72722e+07	
       940.901	     3.80422e+07	
       941.061	     3.87613e+07	
       941.221	     3.94333e+07	
       941.381	     4.00475e+07	
       941.541	     4.05818e+07	
       941.701	     4.10817e+07	
       942.022	     4.19780e+07	
       942.342	     4.27222e+07	
       942.662	     4.32849e+07	
       942.917	     4.36072e+07	
       942.982	     4.36710e+07	
       943.048	     4.37266e+07	
       943.178	     4.38130e+07	
       943.438	     4.38067e+07	
       943.698	     4.36059e+07	
       943.828	     4.34313e+07	
       943.958	     4.32048e+07	
       944.088	     4.29173e+07	
       944.219	     4.25617e+07	
       944.349	     4.21473e+07	
       944.479	     4.16732e+07	
       944.609	     4.11404e+07	
       944.691	     4.07738e+07	
       944.739	     4.05479e+07	
       944.845	     4.00588e+07	
       944.999	     3.92957e+07	
       945.153	     3.84679e+07	
       945.308	     3.75772e+07	
       945.462	     3.66841e+07	
       945.616	     3.57570e+07	
       945.770	     3.47746e+07	
       945.924	     3.37561e+07	
       946.078	     3.27411e+07	
       946.232	     3.16877e+07	
       946.541	     2.96033e+07	
       946.695	     2.85400e+07	
       946.849	     2.74668e+07	
       947.003	     2.63520e+07	
       947.108	     2.55664e+07	
       947.157	     2.51927e+07	
       947.208	     2.47974e+07	
       947.308	     2.40054e+07	
       947.509	     2.23351e+07	
       947.709	     2.05352e+07	
       947.735	     2.02905e+07	
       947.909	     1.85579e+07	
       948.083	     1.66851e+07	
       948.257	     1.46561e+07	
       948.317	     1.39323e+07	
       948.431	     1.24961e+07	
       948.546	     1.09722e+07	
       948.660	     9.35384e+06	
       948.727	     8.34162e+06	
       948.761	     7.80727e+06	
       948.771	     7.64419e+06	
       948.774	     7.59458e+06	
       948.777	     7.54501e+06	
       948.827	     6.63127e+06	
       948.835	     6.47762e+06	
       948.893	     5.27615e+06	
       948.922	     4.63357e+06	
       948.951	     4.06871e+06	
       948.966	     3.93855e+06	
       948.980	     3.88442e+06	
       948.994	     3.87270e+06	
       949.009	     3.87025e+06	
       949.023	     3.87025e+06	
       949.037	     3.87129e+06	
       949.052	     3.87484e+06	
       949.066	     3.88760e+06	
       949.095	     4.07424e+06	
       949.153	     5.28875e+06	
       949.230	     6.86586e+06	
       949.258	     7.39085e+06	
       949.269	     7.57768e+06	
       949.280	     7.76090e+06	
       949.330	     8.55748e+06	
       949.360	     9.01970e+06	
       949.430	     1.00599e+07	
       949.500	     1.10603e+07	
       949.640	     1.29615e+07	
       949.781	     1.47404e+07	
       949.795	     1.49120e+07	
       949.879	     1.59385e+07	
       949.921	     1.64416e+07	
       949.963	     1.69370e+07	
       950.131	     1.88224e+07	
       950.299	     2.05876e+07	
       950.467	     2.22244e+07	
       950.635	     2.37746e+07	
       950.719	     2.45204e+07	
       950.804	     2.52499e+07	
       950.888	     2.59657e+07	
       951.056	     2.73612e+07	
       951.224	     2.87182e+07	
       951.392	     3.00522e+07	
       951.560	     3.13907e+07	
       951.728	     3.27241e+07	
       951.896	     3.41513e+07	
       952.065	     3.55729e+07	
       952.233	     3.70196e+07	
       952.401	     3.85015e+07	
       952.688	     4.10091e+07	
       952.737	     4.14703e+07	
       952.788	     4.19522e+07	
       952.888	     4.29006e+07	
       953.089	     4.48092e+07	
       953.489	     4.87717e+07	
       953.889	     5.28369e+07	
       954.290	     5.67095e+07	
       954.490	     5.85640e+07	
       954.690	     6.03783e+07	
       954.890	     6.20788e+07	
       955.090	     6.35770e+07	
       955.290	     6.50382e+07	
       955.491	     6.64642e+07	
       955.768	     6.83758e+07	
       955.891	     6.91782e+07	
       956.014	     6.99633e+07	
       956.260	     7.15143e+07	
       956.753	     7.44781e+07	
       957.245	     7.72577e+07	
       957.738	     7.98367e+07	
       958.156	     8.18520e+07	
       958.230	     8.21916e+07	
       958.722	     8.43266e+07	
       959.289	     8.64447e+07	
       959.572	     8.73828e+07	
       959.855	     8.82115e+07	
       960.139	     8.89297e+07	
       960.380	     8.94415e+07	
       960.414	     8.95065e+07	
       960.422	     8.95213e+07	
       960.430	     8.95360e+07	
       960.480	     8.96460e+07	
       960.580	     8.98527e+07	
       960.780	     9.02124e+07	
       961.180	     9.06990e+07	
       961.581	     9.08715e+07	
       961.981	     9.07125e+07	
       962.381	     9.02008e+07	
       962.782	     8.93350e+07	
       963.182	     8.80755e+07	
       963.582	     8.64642e+07	
       963.735	     8.57608e+07	
       963.983	     8.45136e+07	
       964.231	     8.31168e+07	
       964.479	     8.16088e+07	
       964.727	     7.99953e+07	
       964.976	     7.82502e+07	
       965.224	     7.64177e+07	
       965.472	     7.44799e+07	
       965.968	     7.03607e+07	
       966.465	     6.60133e+07	
       966.883	     6.22346e+07	
       966.961	     6.15215e+07	
       967.458	     5.69897e+07	
       968.032	     5.17668e+07	
       969.065	     4.24536e+07	
       969.132	     4.18498e+07	
       969.181	     4.14081e+07	
       969.297	     4.03597e+07	
       969.529	     3.82244e+07	
       969.728	     3.63605e+07	
       969.927	     3.44391e+07	
       970.125	     3.24325e+07	
       970.324	     3.03210e+07	
       970.522	     2.80663e+07	
       970.568	     2.75259e+07	
       970.721	     2.55946e+07	
       970.874	     2.35130e+07	
       971.027	     2.12520e+07	
       971.181	     1.87638e+07	
       971.292	     1.67832e+07	
       971.320	     1.62547e+07	
       971.334	     1.59871e+07	
       971.348	     1.57178e+07	
       971.404	     1.46119e+07	
       971.447	     1.37263e+07	
       971.467	     1.33080e+07	
       971.516	     1.22561e+07	
       971.585	     1.07019e+07	
       971.644	     9.29337e+06	
       971.703	     7.77572e+06	
       971.732	     6.98244e+06	
       971.762	     6.11945e+06	
       971.778	     5.64981e+06	
       971.792	     5.25881e+06	
       971.806	     4.93667e+06	
       971.821	     4.77952e+06	
       971.827	     4.77528e+06	
       971.833	     4.77553e+06	
       971.836	     4.77566e+06	
       971.839	     4.77582e+06	
       971.851	     4.77632e+06	
       971.866	     4.84537e+06	
       971.880	     5.11068e+06	
       971.910	     5.94886e+06	
       971.969	     7.62914e+06	
       972.037	     9.39694e+06	
       972.087	     1.06035e+07	
       972.137	     1.17507e+07	
       972.150	     1.20438e+07	
       972.237	     1.39237e+07	
       972.324	     1.56863e+07	
       972.499	     1.88648e+07	
       972.548	     1.96826e+07	
       972.673	     2.16253e+07	
       972.798	     2.34052e+07	
       972.923	     2.50333e+07	
       973.048	     2.65336e+07	
       973.173	     2.79243e+07	
       973.298	     2.92159e+07	
       973.423	     3.04493e+07	
       973.548	     3.16226e+07	
       973.601	     3.21064e+07	
       973.673	     3.27498e+07	
       973.746	     3.33813e+07	
       973.890	     3.46182e+07	
       974.034	     3.58060e+07	
       974.178	     3.69524e+07	
       974.466	     3.92209e+07	
       974.754	     4.14354e+07	
       975.043	     4.35786e+07	
       975.556	     4.73250e+07	
       975.598	     4.76184e+07	
       975.619	     4.77657e+07	
       975.640	     4.79137e+07	
       975.724	     4.85087e+07	
       975.892	     4.97242e+07	
       976.228	     5.21143e+07	
       976.565	     5.46336e+07	
       976.733	     5.59822e+07	
       976.901	     5.74101e+07	
       977.069	     5.89316e+07	
       977.237	     6.05705e+07	
       977.405	     6.21137e+07	
       977.574	     6.36320e+07	
       977.910	     6.69681e+07	
       978.246	     7.03029e+07	
       978.414	     7.20776e+07	
       978.582	     7.39741e+07	
       978.750	     7.60369e+07	
       978.919	     7.82831e+07	
       979.087	     8.07367e+07	
       979.105	     8.10138e+07	
       979.205	     8.26091e+07	
       979.255	     8.34442e+07	
       979.305	     8.43050e+07	
       979.505	     8.73875e+07	
       979.705	     9.08134e+07	
       979.905	     9.46587e+07	
       980.105	     9.80460e+07	
       980.306	     1.01176e+08	
       980.506	     1.04530e+08	
       980.706	     1.07896e+08	
       980.906	     1.10686e+08	
       981.106	     1.13580e+08	
       981.506	     1.19439e+08	
       982.307	     1.31094e+08	
       982.707	     1.36863e+08	
       983.108	     1.42759e+08	
       983.508	     1.48971e+08	
       983.863	     1.54872e+08	
       983.893	     1.55385e+08	
       983.908	     1.55642e+08	
       983.923	     1.55900e+08	
       983.983	     1.56971e+08	
       984.103	     1.59013e+08	
       984.344	     1.62961e+08	
       984.824	     1.70975e+08	
       984.951	     1.72972e+08	
