# Koester WD models
# teff = 18250 K (value for the effective temperature for the model. Temperatures are given in K)
# logg = 8.75 log(cm/s2) (value for Log(G) for the model.)
#
#   WAVELENGTH	#           FLUX	
#   (ANGSTROM)	#  (ERG/CM2/S/A)	
##############	################	
       899.230	     3.59304e+06	
       899.439	     3.59995e+06	
       899.856	     3.61381e+06	
       900.491	     3.63495e+06	
       900.692	     3.64167e+06	
       902.363	     3.69781e+06	
       904.235	     3.76146e+06	
       906.719	     3.84707e+06	
       907.979	     3.89102e+06	
       908.450	     3.90748e+06	
       909.241	     3.93528e+06	
       910.032	     3.96318e+06	
       911.193	     4.00427e+06	
       911.613	     4.01910e+06	
       911.824	     4.02645e+06	
       911.929	     4.03010e+06	
       912.034	     4.03371e+06	
       912.139	     4.08039e+06	
       912.244	     4.12708e+06	
       912.349	     4.17332e+06	
       912.454	     4.21884e+06	
       912.559	     4.26383e+06	
       912.664	     4.30810e+06	
       912.770	     4.35145e+06	
       912.875	     4.39314e+06	
       912.886	     4.39735e+06	
       913.085	     4.46669e+06	
       913.284	     4.52264e+06	
       913.339	     4.53373e+06	
       913.435	     4.55204e+06	
       913.483	     4.56329e+06	
       913.531	     4.57297e+06	
       913.625	     4.58292e+06	
       913.724	     4.58836e+06	
       913.822	     4.59964e+06	
       913.871	     4.60429e+06	
       914.018	     4.59068e+06	
       914.165	     4.55990e+06	
       914.312	     4.59728e+06	
       914.343	     4.59624e+06	
       914.459	     4.50416e+06	
       914.575	     4.41422e+06	
       914.692	     4.52107e+06	
       914.808	     4.59175e+06	
       914.924	     4.40866e+06	
       915.009	     4.19585e+06	
       915.040	     4.14470e+06	
       915.071	     4.12818e+06	
       915.133	     4.21030e+06	
       915.257	     4.54752e+06	
       915.381	     4.64136e+06	
       915.505	     4.28501e+06	
       915.609	     3.84939e+06	
       915.617	     3.82558e+06	
       915.630	     3.78408e+06	
       915.643	     3.75279e+06	
       915.677	     3.72345e+06	
       915.745	     3.88844e+06	
       915.881	     4.58349e+06	
       916.017	     4.95420e+06	
       916.153	     4.75304e+06	
       916.289	     4.00405e+06	
       916.379	     3.44997e+06	
       916.421	     3.34115e+06	
       916.425	     3.33936e+06	
       916.429	     3.33917e+06	
       916.479	     3.46725e+06	
       916.580	     4.15284e+06	
       916.680	     4.87211e+06	
       916.780	     5.36669e+06	
       916.880	     5.57997e+06	
       916.980	     5.45154e+06	
       917.080	     5.01536e+06	
       917.180	     4.29754e+06	
       917.182	     4.28114e+06	
       917.280	     3.41526e+06	
       917.378	     2.92632e+06	
       917.575	     4.36188e+06	
       917.771	     5.87019e+06	
       917.967	     6.50504e+06	
       918.163	     6.03302e+06	
       918.359	     4.57922e+06	
       918.510	     3.10031e+06	
       918.556	     2.73444e+06	
       918.602	     2.60083e+06	
       918.694	     3.10854e+06	
       918.878	     4.99077e+06	
       919.062	     6.56797e+06	
       919.201	     7.38862e+06	
       919.241	     7.55006e+06	
       919.246	     7.56766e+06	
       919.251	     7.58468e+06	
       919.301	     7.71949e+06	
       919.402	     7.81776e+06	
       919.502	     7.72408e+06	
       919.602	     7.39141e+06	
       919.702	     6.83171e+06	
       919.802	     6.12702e+06	
       919.902	     5.25365e+06	
       920.002	     4.26418e+06	
       920.102	     3.14194e+06	
       920.165	     2.54716e+06	
       920.189	     2.42673e+06	
       920.202	     2.39446e+06	
       920.215	     2.38379e+06	
       920.265	     2.54989e+06	
       920.366	     3.59301e+06	
       920.466	     4.67346e+06	
       920.566	     5.66696e+06	
       920.666	     6.60614e+06	
       920.766	     7.43006e+06	
       920.866	     8.18401e+06	
       920.966	     8.77268e+06	
       921.066	     9.22211e+06	
       921.166	     9.52748e+06	
       921.266	     9.66916e+06	
       921.367	     9.66781e+06	
       921.467	     9.51001e+06	
       921.567	     9.17650e+06	
       921.667	     8.70001e+06	
       921.767	     8.08451e+06	
       921.867	     7.32531e+06	
       921.967	     6.50599e+06	
       922.067	     5.56678e+06	
       922.167	     4.51940e+06	
       922.267	     3.38070e+06	
       922.331	     2.61825e+06	
       922.368	     2.34944e+06	
       922.405	     2.26927e+06	
       922.479	     2.62228e+06	
       922.627	     4.38265e+06	
       922.740	     5.59772e+06	
       922.775	     5.94524e+06	
       922.810	     6.30037e+06	
       922.880	     6.94490e+06	
       923.020	     8.20392e+06	
       923.160	     9.33031e+06	
       923.301	     1.03361e+07	
       923.441	     1.11358e+07	
       923.581	     1.17313e+07	
       923.721	     1.21210e+07	
       923.861	     1.23297e+07	
       924.001	     1.23723e+07	
       924.141	     1.22326e+07	
       924.282	     1.18941e+07	
       924.422	     1.13406e+07	
       924.562	     1.05724e+07	
       924.702	     9.60872e+06	
       924.842	     8.54036e+06	
       924.982	     7.30383e+06	
       925.122	     5.97562e+06	
       925.262	     4.42660e+06	
       925.322	     3.69216e+06	
       925.403	     2.65266e+06	
       925.484	     2.23984e+06	
       925.646	     3.70413e+06	
       925.808	     5.62845e+06	
       925.970	     7.25494e+06	
       926.132	     8.76840e+06	
       926.220	     9.52826e+06	
       926.295	     1.01428e+07	
       926.369	     1.07596e+07	
       926.517	     1.18897e+07	
       926.665	     1.28740e+07	
       926.813	     1.37231e+07	
       926.961	     1.44284e+07	
       927.109	     1.49952e+07	
       927.257	     1.54457e+07	
       927.406	     1.57855e+07	
       927.554	     1.60134e+07	
       927.702	     1.61435e+07	
       927.850	     1.61757e+07	
       927.998	     1.61060e+07	
       928.038	     1.60648e+07	
       928.110	     1.59501e+07	
       928.146	     1.58801e+07	
       928.182	     1.58010e+07	
       928.327	     1.53924e+07	
       928.471	     1.48559e+07	
       928.615	     1.41683e+07	
       928.717	     1.35917e+07	
       928.759	     1.33303e+07	
       928.903	     1.24798e+07	
       928.917	     1.23903e+07	
       929.089	     1.12129e+07	
       929.261	     9.84742e+06	
       929.325	     9.32195e+06	
       929.434	     8.34665e+06	
       929.543	     7.32098e+06	
       929.652	     6.21347e+06	
       929.719	     5.47061e+06	
       929.753	     5.07034e+06	
       929.755	     5.04540e+06	
       929.761	     4.97047e+06	
       929.769	     4.87032e+06	
       929.819	     4.22265e+06	
       929.827	     4.11502e+06	
       929.883	     3.33188e+06	
       929.910	     2.93441e+06	
       929.939	     2.55377e+06	
       929.954	     2.42928e+06	
       929.968	     2.34982e+06	
       929.982	     2.31374e+06	
       929.996	     2.29865e+06	
       930.010	     2.29490e+06	
       930.024	     2.29932e+06	
       930.038	     2.31508e+06	
       930.052	     2.35187e+06	
       930.081	     2.55749e+06	
       930.137	     3.34030e+06	
       930.201	     4.23835e+06	
       930.247	     4.84160e+06	
       930.249	     4.86727e+06	
       930.251	     4.89290e+06	
       930.301	     5.50112e+06	
       930.326	     5.77365e+06	
       930.402	     6.61378e+06	
       930.478	     7.38774e+06	
       930.630	     8.85373e+06	
       930.633	     8.88197e+06	
       930.782	     1.02070e+07	
       930.931	     1.14744e+07	
       931.080	     1.26202e+07	
       931.229	     1.36909e+07	
       931.379	     1.47862e+07	
       931.516	     1.57300e+07	
       931.528	     1.58100e+07	
       931.677	     1.67417e+07	
       931.838	     1.76727e+07	
       931.999	     1.85016e+07	
       932.160	     1.91719e+07	
       932.321	     1.97718e+07	
       932.483	     2.02988e+07	
       932.644	     2.07623e+07	
       932.805	     2.11351e+07	
       932.966	     2.14258e+07	
       933.127	     2.16628e+07	
       933.173	     2.17206e+07	
       933.265	     2.18222e+07	
       933.288	     2.18447e+07	
       933.403	     2.19383e+07	
       933.432	     2.19548e+07	
       933.542	     2.19991e+07	
       933.652	     2.20107e+07	
       933.762	     2.19868e+07	
       933.872	     2.19269e+07	
       933.982	     2.18201e+07	
       934.092	     2.16608e+07	
       934.202	     2.14559e+07	
       934.312	     2.12035e+07	
       934.413	     2.09407e+07	
       934.422	     2.09171e+07	
       934.533	     2.06047e+07	
       934.652	     2.02145e+07	
       934.771	     1.97694e+07	
       934.890	     1.92784e+07	
       935.009	     1.87255e+07	
       935.026	     1.86414e+07	
       935.128	     1.81427e+07	
       935.230	     1.76580e+07	
       935.332	     1.71436e+07	
       935.434	     1.66083e+07	
       935.537	     1.60472e+07	
       935.639	     1.54558e+07	
       935.741	     1.48340e+07	
       935.843	     1.41728e+07	
       935.945	     1.34646e+07	
       935.950	     1.34287e+07	
       936.047	     1.27123e+07	
       936.144	     1.19539e+07	
       936.338	     1.03290e+07	
       936.464	     9.18869e+06	
       936.532	     8.53319e+06	
       936.601	     7.84566e+06	
       936.645	     7.38645e+06	
       936.714	     6.63049e+06	
       936.737	     6.36769e+06	
       936.829	     5.24885e+06	
       936.887	     4.43021e+06	
       936.944	     3.55022e+06	
       936.973	     3.06833e+06	
       937.001	     2.65311e+06	
       937.015	     2.53939e+06	
       937.029	     2.47522e+06	
       937.043	     2.45441e+06	
       937.058	     2.44791e+06	
       937.072	     2.44669e+06	
       937.086	     2.44861e+06	
       937.101	     2.45586e+06	
       937.115	     2.47739e+06	
       937.143	     2.65692e+06	
       937.150	     2.74519e+06	
       937.186	     3.32710e+06	
       937.199	     3.54340e+06	
       937.250	     4.34215e+06	
       937.314	     5.25956e+06	
       937.341	     5.61205e+06	
       937.442	     6.81217e+06	
       937.543	     7.91220e+06	
       937.645	     8.94556e+06	
       937.746	     9.91719e+06	
       937.847	     1.08285e+07	
       937.896	     1.12643e+07	
       937.948	     1.17184e+07	
       938.000	     1.21577e+07	
       938.104	     1.30127e+07	
       938.208	     1.38259e+07	
       938.312	     1.46000e+07	
       938.416	     1.53322e+07	
       938.520	     1.60323e+07	
       938.543	     1.61843e+07	
       938.556	     1.62703e+07	
       938.624	     1.67133e+07	
       938.729	     1.73723e+07	
       938.914	     1.85217e+07	
       939.093	     1.96234e+07	
       939.271	     2.07764e+07	
       939.449	     2.18646e+07	
       939.628	     2.29152e+07	
       939.807	     2.39352e+07	
       939.986	     2.49790e+07	
       940.164	     2.59714e+07	
       940.343	     2.68827e+07	
       940.521	     2.77394e+07	
       940.580	     2.80105e+07	
       940.660	     2.83732e+07	
       940.700	     2.85510e+07	
       940.740	     2.87252e+07	
       940.901	     2.93443e+07	
       941.061	     2.99253e+07	
       941.221	     3.04691e+07	
       941.381	     3.09642e+07	
       941.541	     3.13882e+07	
       941.701	     3.17847e+07	
       942.022	     3.24941e+07	
       942.342	     3.30807e+07	
       942.662	     3.35139e+07	
       942.917	     3.37539e+07	
       942.982	     3.37991e+07	
       943.048	     3.38378e+07	
       943.178	     3.38965e+07	
       943.438	     3.38752e+07	
       943.698	     3.36977e+07	
       943.828	     3.35488e+07	
       943.958	     3.33587e+07	
       944.088	     3.31202e+07	
       944.219	     3.28278e+07	
       944.349	     3.24894e+07	
       944.479	     3.21042e+07	
       944.609	     3.16739e+07	
       944.691	     3.13782e+07	
       944.739	     3.11970e+07	
       944.845	     3.08139e+07	
       944.999	     3.02213e+07	
       945.153	     2.95792e+07	
       945.308	     2.88918e+07	
       945.462	     2.81916e+07	
       945.616	     2.74598e+07	
       945.770	     2.66845e+07	
       945.924	     2.58873e+07	
       946.232	     2.43170e+07	
       946.540	     2.27644e+07	
       946.849	     2.11632e+07	
       947.004	     2.03269e+07	
       947.158	     1.94635e+07	
       947.312	     1.85647e+07	
       947.468	     1.76219e+07	
       947.471	     1.76032e+07	
       947.622	     1.66275e+07	
       947.624	     1.66175e+07	
       947.777	     1.55655e+07	
       947.930	     1.44134e+07	
       948.033	     1.35833e+07	
       948.083	     1.31622e+07	
       948.133	     1.27333e+07	
       948.233	     1.18332e+07	
       948.333	     1.09064e+07	
       948.433	     9.91166e+06	
       948.495	     9.26358e+06	
       948.521	     8.98210e+06	
       948.534	     8.84980e+06	
       948.546	     8.71679e+06	
       948.596	     8.15290e+06	
       948.615	     7.93346e+06	
       948.661	     7.38431e+06	
       948.696	     6.95153e+06	
       948.777	     5.88015e+06	
       948.835	     4.97911e+06	
       948.893	     3.96384e+06	
       948.922	     3.39927e+06	
       948.951	     2.90245e+06	
       948.966	     2.79655e+06	
       948.980	     2.76055e+06	
       948.994	     2.75439e+06	
       949.009	     2.75363e+06	
       949.023	     2.75384e+06	
       949.037	     2.75439e+06	
       949.052	     2.75596e+06	
       949.066	     2.76289e+06	
       949.095	     2.90656e+06	
       949.153	     3.97361e+06	
       949.230	     5.30373e+06	
       949.258	     5.74780e+06	
       949.269	     5.90635e+06	
       949.280	     6.06356e+06	
       949.330	     6.73491e+06	
       949.360	     7.11929e+06	
       949.430	     7.97829e+06	
       949.500	     8.78873e+06	
       949.640	     1.03031e+07	
       949.781	     1.16896e+07	
       949.795	     1.18213e+07	
       949.879	     1.26103e+07	
       949.921	     1.29929e+07	
       949.963	     1.33668e+07	
       950.131	     1.47952e+07	
       950.299	     1.61070e+07	
       950.467	     1.73141e+07	
       950.635	     1.84523e+07	
       950.719	     1.90033e+07	
       950.804	     1.95428e+07	
       950.888	     2.00728e+07	
       951.056	     2.11099e+07	
       951.392	     2.31251e+07	
       951.560	     2.41216e+07	
       951.728	     2.51164e+07	
       951.896	     2.61929e+07	
       952.065	     2.72735e+07	
       952.233	     2.83935e+07	
       952.401	     2.95591e+07	
       952.688	     3.15341e+07	
       952.737	     3.18903e+07	
       952.788	     3.22623e+07	
       952.888	     3.29958e+07	
       953.089	     3.44774e+07	
       953.289	     3.59807e+07	
       953.489	     3.76111e+07	
       953.889	     4.09007e+07	
       954.290	     4.41102e+07	
       954.490	     4.56762e+07	
       954.690	     4.72188e+07	
       954.890	     4.86780e+07	
       955.090	     4.99708e+07	
       955.290	     5.12334e+07	
       955.491	     5.24665e+07	
       955.768	     5.41265e+07	
       955.891	     5.48129e+07	
       956.014	     5.54818e+07	
       956.260	     5.68126e+07	
       956.753	     5.93660e+07	
       957.245	     6.17650e+07	
       957.738	     6.39927e+07	
       958.156	     6.57356e+07	
       958.230	     6.60294e+07	
       958.722	     6.78757e+07	
       959.289	     6.96921e+07	
       959.572	     7.05027e+07	
       959.855	     7.12139e+07	
       960.139	     7.18247e+07	
       960.380	     7.22532e+07	
       960.414	     7.23069e+07	
       960.422	     7.23191e+07	
       960.430	     7.23317e+07	
       960.480	     7.24319e+07	
       960.580	     7.26204e+07	
       960.780	     7.29462e+07	
       961.180	     7.33747e+07	
       961.581	     7.35026e+07	
       961.981	     7.33135e+07	
       962.381	     7.27964e+07	
       962.782	     7.19538e+07	
       963.182	     7.07549e+07	
       963.582	     6.92464e+07	
       963.735	     6.85932e+07	
       963.983	     6.74431e+07	
       964.231	     6.61685e+07	
       964.479	     6.48032e+07	
       964.727	     6.33549e+07	
       964.976	     6.18052e+07	
       965.472	     5.85027e+07	
       965.968	     5.49691e+07	
       966.465	     5.13135e+07	
       966.961	     4.76080e+07	
       967.876	     4.09086e+07	
       967.954	     4.03544e+07	
       968.032	     3.97971e+07	
       968.188	     3.86802e+07	
       968.500	     3.64943e+07	
       968.953	     3.33844e+07	
       969.125	     3.22073e+07	
       969.297	     3.10272e+07	
       969.356	     3.06184e+07	
       969.641	     2.86219e+07	
       969.927	     2.65678e+07	
       970.069	     2.54992e+07	
       970.212	     2.43965e+07	
       970.354	     2.32511e+07	
       970.497	     2.20505e+07	
       970.639	     2.07845e+07	
       970.690	     2.03062e+07	
       970.782	     1.94073e+07	
       970.874	     1.84685e+07	
       971.058	     1.64181e+07	
       971.137	     1.54511e+07	
       971.243	     1.40591e+07	
       971.348	     1.25334e+07	
       971.453	     1.08525e+07	
       971.531	     9.48868e+06	
       971.558	     8.98549e+06	
       971.575	     8.66420e+06	
       971.585	     8.47130e+06	
       971.639	     7.38742e+06	
       971.644	     7.28262e+06	
       971.703	     5.99695e+06	
       971.732	     5.32437e+06	
       971.762	     4.60297e+06	
       971.778	     4.20675e+06	
       971.792	     3.87362e+06	
       971.806	     3.58660e+06	
       971.821	     3.43184e+06	
       971.827	     3.42575e+06	
       971.833	     3.42588e+06	
       971.836	     3.42597e+06	
       971.839	     3.42606e+06	
       971.851	     3.42650e+06	
       971.866	     3.50080e+06	
       971.880	     3.74368e+06	
       971.910	     4.45908e+06	
       971.969	     5.87198e+06	
       972.037	     7.36958e+06	
       972.087	     8.38802e+06	
       972.137	     9.34643e+06	
       972.150	     9.58736e+06	
       972.237	     1.11148e+07	
       972.324	     1.25124e+07	
       972.499	     1.49838e+07	
       972.548	     1.56088e+07	
       972.673	     1.70801e+07	
       972.798	     1.84118e+07	
       972.923	     1.96185e+07	
       973.048	     2.07287e+07	
       973.173	     2.17528e+07	
       973.298	     2.27108e+07	
       973.423	     2.36267e+07	
       973.548	     2.45007e+07	
       973.601	     2.48601e+07	
       973.673	     2.53413e+07	
       973.746	     2.58131e+07	
       973.890	     2.67393e+07	
       974.178	     2.84939e+07	
       974.466	     3.02102e+07	
       975.043	     3.35318e+07	
       975.556	     3.64013e+07	
       975.598	     3.66275e+07	
       975.619	     3.67409e+07	
       975.640	     3.68543e+07	
       975.724	     3.73111e+07	
       975.892	     3.82454e+07	
       976.228	     4.00939e+07	
       976.397	     4.10512e+07	
       976.565	     4.20493e+07	
       976.733	     4.31001e+07	
       976.901	     4.42160e+07	
       977.069	     4.54076e+07	
       977.237	     4.66944e+07	
       977.574	     4.91100e+07	
       977.910	     5.17571e+07	
       978.078	     5.30813e+07	
       978.246	     5.44149e+07	
       978.414	     5.58374e+07	
       978.582	     5.73611e+07	
       978.750	     5.90236e+07	
       978.919	     6.08454e+07	
       979.087	     6.28444e+07	
       979.105	     6.30709e+07	
       979.205	     6.43753e+07	
       979.255	     6.50602e+07	
       979.305	     6.57692e+07	
       979.505	     6.83127e+07	
       979.705	     7.11583e+07	
       979.905	     7.43829e+07	
       980.105	     7.72414e+07	
       980.306	     7.98920e+07	
       980.506	     8.27577e+07	
       980.706	     8.56508e+07	
       980.906	     8.80497e+07	
       981.106	     9.05501e+07	
       981.506	     9.56596e+07	
       982.307	     1.05942e+08	
       982.707	     1.11094e+08	
       983.108	     1.16400e+08	
       983.508	     1.22040e+08	
       983.863	     1.27449e+08	
       983.893	     1.27921e+08	
       983.908	     1.28158e+08	
       983.923	     1.28396e+08	
       983.983	     1.29384e+08	
