# Koester WD models
# teff = 18000 K (value for the effective temperature for the model. Temperatures are given in K)
# logg = 8.25 log(cm/s2) (value for Log(G) for the model.)
#
#   WAVELENGTH	#           FLUX	
#   (ANGSTROM)	#  (ERG/CM2/S/A)	
##############	################	
       899.230	     2.93458e+06	
       899.550	     2.94344e+06	
       901.893	     3.00887e+06	
       904.235	     3.07531e+06	
       908.600	     3.20185e+06	
       908.920	     3.21127e+06	
       909.241	     3.22070e+06	
       909.731	     3.23518e+06	
       909.834	     3.23823e+06	
       909.881	     3.23961e+06	
       909.902	     3.24024e+06	
       910.032	     3.24407e+06	
       910.332	     3.25302e+06	
       910.934	     3.27096e+06	
       910.969	     3.27197e+06	
       911.501	     3.28780e+06	
       911.767	     3.29566e+06	
       911.901	     3.29955e+06	
       912.034	     3.30338e+06	
       912.167	     3.38054e+06	
       912.300	     3.45764e+06	
       912.433	     3.53511e+06	
       912.566	     3.61101e+06	
       912.699	     3.68556e+06	
       912.833	     3.75750e+06	
       912.966	     3.82344e+06	
       913.099	     3.87013e+06	
       913.181	     3.88225e+06	
       913.233	     3.88904e+06	
       913.284	     3.89796e+06	
       913.335	     3.90280e+06	
       913.387	     3.90497e+06	
       913.438	     3.90346e+06	
       913.440	     3.90330e+06	
       913.490	     3.90384e+06	
       913.540	     3.90952e+06	
       913.590	     3.92168e+06	
       913.640	     3.92617e+06	
       913.691	     3.91411e+06	
       913.741	     3.88508e+06	
       913.791	     3.86297e+06	
       913.841	     3.86834e+06	
       913.891	     3.89529e+06	
       913.941	     3.92957e+06	
       913.991	     3.92397e+06	
       914.041	     3.86218e+06	
       914.091	     3.77258e+06	
       914.141	     3.71025e+06	
       914.165	     3.70306e+06	
       914.191	     3.71814e+06	
       914.291	     3.89523e+06	
       914.391	     3.92354e+06	
       914.406	     3.88401e+06	
       914.491	     3.60765e+06	
       914.575	     3.42173e+06	
       914.745	     3.94817e+06	
       914.755	     3.97964e+06	
       914.913	     3.75596e+06	
       915.071	     3.05175e+06	
       915.229	     3.82797e+06	
       915.387	     4.20100e+06	
       915.448	     4.02438e+06	
       915.545	     3.41158e+06	
       915.593	     3.04598e+06	
       915.643	     2.74109e+06	
       915.693	     2.69197e+06	
       915.793	     3.33807e+06	
       915.893	     4.13600e+06	
       915.993	     4.57843e+06	
       916.093	     4.58371e+06	
       916.193	     4.14169e+06	
       916.293	     3.31824e+06	
       916.343	     2.83574e+06	
       916.393	     2.45971e+06	
       916.443	     2.38277e+06	
       916.544	     3.12416e+06	
       916.644	     4.12720e+06	
       916.744	     4.86981e+06	
       916.844	     5.27037e+06	
       916.944	     5.29230e+06	
       917.044	     4.91719e+06	
       917.144	     4.18278e+06	
       917.244	     3.17527e+06	
       917.294	     2.61839e+06	
       917.344	     2.20991e+06	
       917.394	     2.14394e+06	
       917.495	     2.97933e+06	
       917.595	     4.10465e+06	
       917.695	     5.04424e+06	
       917.795	     5.75691e+06	
       917.895	     6.19626e+06	
       917.995	     6.32924e+06	
       918.095	     6.15520e+06	
       918.195	     5.64752e+06	
       918.295	     4.90233e+06	
       918.395	     3.93475e+06	
       918.496	     2.72423e+06	
       918.546	     2.19297e+06	
       918.596	     1.95700e+06	
       918.646	     2.10014e+06	
       918.746	     3.22393e+06	
       918.846	     4.37074e+06	
       918.946	     5.35921e+06	
       919.046	     6.24932e+06	
       919.146	     6.94308e+06	
       919.196	     7.20245e+06	
       919.246	     7.41011e+06	
       919.296	     7.55544e+06	
       919.397	     7.67369e+06	
       919.497	     7.59681e+06	
       919.597	     7.28674e+06	
       919.697	     6.75757e+06	
       919.797	     6.02765e+06	
       919.897	     5.13377e+06	
       919.997	     4.08822e+06	
       920.097	     2.82156e+06	
       920.147	     2.19637e+06	
       920.197	     1.87352e+06	
       920.247	     1.91954e+06	
       920.347	     3.02621e+06	
       920.448	     4.25950e+06	
       920.548	     5.33364e+06	
       920.648	     6.29892e+06	
       920.748	     7.14609e+06	
       920.848	     7.87698e+06	
       920.948	     8.46229e+06	
       921.048	     8.89259e+06	
       921.148	     9.19255e+06	
       921.248	     9.34219e+06	
       921.349	     9.36854e+06	
       921.449	     9.25758e+06	
       921.549	     8.99872e+06	
       921.649	     8.59452e+06	
       921.749	     8.04788e+06	
       921.849	     7.35943e+06	
       921.949	     6.57058e+06	
       922.049	     5.63021e+06	
       922.149	     4.57413e+06	
       922.249	     3.35506e+06	
       922.294	     2.68608e+06	
       922.350	     2.00828e+06	
       922.405	     1.81058e+06	
       922.515	     2.69223e+06	
       922.625	     4.19481e+06	
       922.660	     4.60074e+06	
       922.735	     5.42993e+06	
       922.810	     6.19572e+06	
       922.960	     7.54369e+06	
       923.110	     8.73448e+06	
       923.260	     9.72961e+06	
       923.411	     1.05357e+07	
       923.561	     1.11261e+07	
       923.711	     1.15129e+07	
       923.861	     1.17200e+07	
       924.011	     1.17635e+07	
       924.161	     1.16206e+07	
       924.312	     1.12765e+07	
       924.462	     1.07053e+07	
       924.612	     9.91066e+06	
       924.762	     8.96007e+06	
       924.912	     7.81735e+06	
       925.062	     6.50866e+06	
       925.212	     4.90996e+06	
       925.241	     4.54921e+06	
       925.363	     2.88957e+06	
       925.484	     1.82082e+06	
       925.605	     2.89671e+06	
       925.726	     4.57121e+06	
       925.847	     5.96598e+06	
       925.968	     7.16465e+06	
       926.089	     8.22648e+06	
       926.210	     9.20688e+06	
       926.282	     9.72910e+06	
       926.332	     1.00995e+07	
       926.382	     1.04516e+07	
       926.482	     1.11438e+07	
       926.682	     1.23318e+07	
       926.882	     1.32773e+07	
       927.082	     1.39822e+07	
       927.283	     1.45024e+07	
       927.483	     1.48608e+07	
       927.683	     1.50504e+07	
       927.883	     1.50921e+07	
       927.984	     1.50535e+07	
       928.083	     1.49523e+07	
       928.182	     1.47808e+07	
       928.381	     1.42555e+07	
       928.579	     1.34770e+07	
       928.777	     1.25101e+07	
       928.861	     1.20932e+07	
       928.975	     1.14671e+07	
       929.089	     1.07747e+07	
       929.145	     1.04028e+07	
       929.203	     9.99598e+06	
       929.261	     9.58104e+06	
       929.378	     8.68421e+06	
       929.444	     8.12928e+06	
       929.494	     7.69473e+06	
       929.544	     7.23738e+06	
       929.644	     6.23151e+06	
       929.694	     5.67368e+06	
       929.705	     5.54573e+06	
       929.744	     5.07914e+06	
       929.794	     4.41658e+06	
       929.827	     3.95184e+06	
       929.883	     3.08926e+06	
       929.889	     2.98996e+06	
       929.939	     2.17366e+06	
       929.989	     1.89242e+06	
       930.039	     1.90183e+06	
       930.089	     2.27816e+06	
       930.139	     3.12841e+06	
       930.189	     3.90632e+06	
       930.239	     4.61120e+06	
       930.289	     5.26635e+06	
       930.301	     5.41064e+06	
       930.390	     6.41563e+06	
       930.478	     7.31203e+06	
       930.654	     8.88967e+06	
       930.729	     9.50294e+06	
       930.830	     1.02766e+07	
       930.931	     1.10177e+07	
       931.032	     1.17041e+07	
       931.133	     1.23524e+07	
       931.234	     1.29654e+07	
       931.335	     1.36124e+07	
       931.437	     1.42492e+07	
       931.440	     1.42676e+07	
       931.538	     1.48727e+07	
       931.639	     1.54610e+07	
       931.838	     1.65191e+07	
       932.037	     1.74197e+07	
       932.236	     1.81234e+07	
       932.436	     1.87335e+07	
       932.635	     1.92570e+07	
       932.834	     1.96724e+07	
       933.033	     1.99883e+07	
       933.061	     2.00265e+07	
       933.232	     2.02274e+07	
       933.265	     2.02595e+07	
       933.403	     2.03683e+07	
       933.432	     2.03843e+07	
       933.542	     2.04292e+07	
       933.652	     2.04448e+07	
       933.762	     2.04297e+07	
       933.872	     2.03825e+07	
       933.982	     2.02881e+07	
       934.092	     2.01394e+07	
       934.202	     1.99478e+07	
       934.312	     1.97110e+07	
       934.413	     1.94630e+07	
       934.422	     1.94404e+07	
       934.533	     1.91408e+07	
       934.652	     1.87663e+07	
       934.771	     1.83390e+07	
       934.890	     1.78672e+07	
       935.009	     1.73445e+07	
       935.026	     1.72656e+07	
       935.128	     1.68101e+07	
       935.230	     1.63877e+07	
       935.332	     1.59419e+07	
       935.434	     1.54755e+07	
       935.537	     1.49835e+07	
       935.639	     1.44648e+07	
       935.741	     1.39270e+07	
       935.746	     1.38999e+07	
       935.843	     1.33556e+07	
       935.945	     1.27412e+07	
       936.144	     1.14302e+07	
       936.343	     9.98320e+06	
       936.484	     8.82747e+06	
       936.542	     8.30543e+06	
       936.601	     7.74908e+06	
       936.605	     7.70950e+06	
       936.717	     6.51821e+06	
       936.829	     5.12673e+06	
       936.891	     4.20659e+06	
       936.941	     3.36069e+06	
       936.991	     2.39532e+06	
       937.041	     2.02724e+06	
       937.091	     2.02377e+06	
       937.141	     2.23125e+06	
       937.168	     2.68652e+06	
       937.191	     3.14916e+06	
       937.241	     4.02928e+06	
       937.314	     5.13591e+06	
       937.377	     5.96120e+06	
       937.460	     6.93494e+06	
       937.543	     7.81471e+06	
       937.710	     9.35890e+06	
       937.752	     9.71415e+06	
       937.876	     1.06949e+07	
       938.000	     1.16213e+07	
       938.124	     1.25017e+07	
       938.248	     1.33327e+07	
       938.372	     1.41103e+07	
       938.496	     1.48435e+07	
       938.620	     1.55573e+07	
       938.745	     1.62454e+07	
       938.819	     1.66486e+07	
       938.869	     1.69192e+07	
       938.919	     1.71877e+07	
       939.019	     1.77192e+07	
       939.167	     1.86107e+07	
       939.219	     1.89304e+07	
       939.271	     1.92461e+07	
       939.375	     1.98649e+07	
       939.583	     2.10700e+07	
       939.792	     2.22262e+07	
       940.000	     2.34182e+07	
       940.104	     2.39992e+07	
       940.208	     2.45658e+07	
       940.312	     2.50815e+07	
       940.416	     2.55875e+07	
       940.508	     2.60250e+07	
       940.624	     2.65652e+07	
       940.740	     2.70914e+07	
       940.973	     2.80385e+07	
       941.205	     2.89148e+07	
       941.437	     2.96765e+07	
       941.669	     3.03121e+07	
       941.901	     3.08871e+07	
       942.134	     3.13998e+07	
       942.366	     3.18284e+07	
       942.598	     3.21573e+07	
       942.613	     3.21756e+07	
       942.830	     3.23955e+07	
       943.048	     3.25296e+07	
       943.265	     3.25742e+07	
       943.482	     3.24891e+07	
       943.699	     3.22858e+07	
       943.916	     3.19591e+07	
       944.024	     3.17489e+07	
       944.134	     3.14885e+07	
       944.242	     3.11909e+07	
       944.351	     3.08593e+07	
       944.568	     3.00972e+07	
       944.697	     2.95842e+07	
       944.785	     2.92277e+07	
       944.849	     2.89756e+07	
       945.002	     2.83439e+07	
       945.154	     2.76691e+07	
       945.308	     2.69538e+07	
       945.613	     2.54576e+07	
       945.766	     2.46615e+07	
       945.918	     2.38628e+07	
       946.071	     2.31367e+07	
       946.223	     2.24014e+07	
       946.510	     2.10698e+07	
       946.529	     2.09825e+07	
       946.834	     1.95560e+07	
       946.996	     1.87810e+07	
       947.158	     1.79911e+07	
       947.320	     1.71770e+07	
       947.483	     1.63244e+07	
       947.531	     1.60633e+07	
       947.645	     1.54228e+07	
       947.669	     1.52843e+07	
       947.807	     1.44531e+07	
       947.945	     1.35467e+07	
       948.033	     1.29337e+07	
       948.083	     1.25710e+07	
       948.133	     1.21985e+07	
       948.233	     1.14234e+07	
       948.333	     1.06032e+07	
       948.433	     9.70576e+06	
       948.483	     9.22387e+06	
       948.534	     8.71415e+06	
       948.584	     8.17672e+06	
       948.591	     8.09890e+06	
       948.661	     7.28218e+06	
       948.684	     6.99689e+06	
       948.777	     5.73853e+06	
       948.835	     4.80136e+06	
       948.893	     3.70331e+06	
       948.901	     3.53828e+06	
       948.951	     2.44926e+06	
       949.001	     2.28299e+06	
       949.049	     2.28428e+06	
       949.051	     2.28446e+06	
       949.101	     2.52884e+06	
       949.153	     3.71251e+06	
       949.207	     4.74845e+06	
       949.257	     5.57897e+06	
       949.307	     6.31268e+06	
       949.314	     6.40700e+06	
       949.407	     7.59621e+06	
       949.500	     8.65927e+06	
       949.687	     1.04941e+07	
       949.783	     1.13279e+07	
       949.873	     1.20635e+07	
       949.963	     1.27675e+07	
       950.143	     1.40850e+07	
       950.323	     1.52857e+07	
       950.503	     1.63850e+07	
       950.683	     1.74225e+07	
       950.814	     1.81435e+07	
       950.864	     1.84162e+07	
       950.914	     1.86873e+07	
       951.014	     1.92239e+07	
       951.214	     2.02946e+07	
       951.414	     2.13606e+07	
       951.614	     2.24321e+07	
       951.814	     2.35485e+07	
       952.015	     2.47358e+07	
       952.092	     2.52019e+07	
       952.215	     2.59976e+07	
       952.415	     2.74061e+07	
       952.738	     2.97281e+07	
       952.899	     3.09494e+07	
       953.061	     3.21954e+07	
       953.223	     3.34715e+07	
       953.385	     3.48487e+07	
       953.546	     3.63200e+07	
       953.708	     3.78188e+07	
       954.031	     4.08888e+07	
       954.355	     4.39562e+07	
       954.678	     4.70752e+07	
       955.001	     5.00289e+07	
       955.324	     5.27725e+07	
       955.648	     5.54450e+07	
       955.921	     5.75468e+07	
       955.971	     5.79071e+07	
       956.021	     5.82668e+07	
       956.121	     5.89928e+07	
       956.321	     6.04251e+07	
       956.722	     6.32183e+07	
       957.122	     6.59012e+07	
       957.522	     6.84481e+07	
       957.923	     7.08360e+07	
       958.323	     7.30537e+07	
       958.723	     7.50897e+07	
       958.959	     7.61777e+07	
       959.124	     7.68889e+07	
       959.289	     7.75549e+07	
       959.619	     7.88244e+07	
       959.949	     7.98913e+07	
       960.130	     8.03833e+07	
       960.280	     8.07370e+07	
       960.430	     8.10380e+07	
       960.730	     8.17650e+07	
       961.030	     8.22309e+07	
       961.331	     8.24316e+07	
       961.631	     8.23509e+07	
       961.931	     8.19865e+07	
       962.231	     8.13361e+07	
       962.532	     8.03984e+07	
       962.832	     7.91851e+07	
       963.132	     7.76781e+07	
       963.234	     7.71104e+07	
       963.432	     7.59329e+07	
       963.483	     7.56093e+07	
       963.733	     7.39484e+07	
       963.982	     7.21589e+07	
       964.231	     7.02203e+07	
       964.480	     6.81832e+07	
       964.729	     6.60614e+07	
       965.228	     6.15821e+07	
       965.726	     5.69335e+07	
       966.225	     5.23113e+07	
       966.411	     5.06161e+07	
       966.723	     4.78405e+07	
       966.816	     4.70130e+07	
       967.221	     4.35538e+07	
       967.627	     4.02777e+07	
       968.032	     3.71965e+07	
       968.388	     3.46009e+07	
       968.437	     3.42556e+07	
       968.843	     3.14784e+07	
       969.297	     2.84899e+07	
       969.576	     2.66732e+07	
       969.751	     2.55340e+07	
       969.927	     2.43855e+07	
       970.102	     2.32158e+07	
       970.277	     2.20160e+07	
       970.380	     2.12887e+07	
       970.452	     2.07690e+07	
       970.503	     2.03893e+07	
       970.627	     1.94480e+07	
       970.750	     1.84395e+07	
       970.874	     1.73718e+07	
       970.895	     1.71821e+07	
       970.998	     1.62183e+07	
       971.008	     1.61159e+07	
       971.121	     1.49559e+07	
       971.235	     1.36683e+07	
       971.348	     1.22147e+07	
       971.461	     1.05342e+07	
       971.524	     9.46760e+06	
       971.545	     9.08599e+06	
       971.574	     8.54042e+06	
       971.624	     7.53313e+06	
       971.644	     7.10719e+06	
       971.703	     5.76052e+06	
       971.712	     5.54340e+06	
       971.762	     4.27118e+06	
       971.812	     2.99555e+06	
       971.855	     2.86389e+06	
       971.862	     2.93171e+06	
       971.912	     4.17128e+06	
       971.969	     5.62845e+06	
       972.033	     7.10842e+06	
       972.083	     8.15947e+06	
       972.133	     9.12686e+06	
       972.142	     9.29321e+06	
       972.233	     1.08476e+07	
       972.324	     1.22035e+07	
       972.507	     1.44827e+07	
       972.580	     1.52757e+07	
       972.689	     1.63584e+07	
       972.798	     1.73488e+07	
       972.907	     1.82569e+07	
       973.016	     1.90985e+07	
       973.125	     1.98860e+07	
       973.234	     2.06269e+07	
       973.343	     2.13329e+07	
       973.377	     2.15478e+07	
       973.452	     2.20140e+07	
       973.561	     2.26724e+07	
       973.746	     2.37471e+07	
       973.930	     2.47955e+07	
       974.114	     2.58025e+07	
       974.482	     2.78123e+07	
       974.797	     2.95209e+07	
       975.219	     3.18388e+07	
       975.640	     3.40621e+07	
       976.061	     3.63649e+07	
       976.273	     3.75367e+07	
       976.483	     3.87751e+07	
       976.694	     4.00990e+07	
       976.904	     4.15378e+07	
       977.115	     4.31187e+07	
       977.325	     4.48324e+07	
       977.536	     4.64107e+07	
       977.747	     4.81352e+07	
       977.958	     5.00440e+07	
       978.168	     5.18498e+07	
       978.379	     5.38149e+07	
       978.484	     5.48714e+07	
       978.589	     5.59854e+07	
       978.694	     5.71729e+07	
       978.800	     5.84437e+07	
       978.906	     5.97977e+07	
       979.011	     6.12460e+07	
       979.116	     6.28020e+07	
       979.138	     6.31382e+07	
       979.222	     6.44806e+07	
       979.305	     6.59116e+07	
       979.472	     6.85062e+07	
       979.639	     7.13936e+07	
       979.806	     7.46414e+07	
       979.973	     7.83265e+07	
       980.140	     8.10839e+07	
       980.308	     8.40363e+07	
       980.475	     8.72301e+07	
       980.642	     9.06906e+07	
       980.809	     9.34721e+07	
       980.976	     9.62930e+07	
       981.310	     1.02331e+08	
       981.645	     1.08329e+08	
       981.979	     1.14770e+08	
       982.313	     1.20930e+08	
       982.647	     1.27349e+08	
       982.982	     1.34028e+08	
       983.316	     1.41050e+08	
       983.377	     1.42391e+08	
       983.650	     1.48745e+08	
       983.923	     1.55458e+08	
       984.197	     1.62294e+08	
       984.743	     1.76169e+08	
       985.053	     1.83675e+08	
       985.836	     2.03924e+08	
       986.227	     2.14499e+08	
       986.423	     2.19728e+08	
       986.618	     2.25032e+08	
       986.813	     2.29640e+08	
       987.010	     2.32570e+08	
       987.205	     2.35411e+08	
       987.401	     2.38193e+08	
       987.792	     2.43201e+08	
       987.987	     2.45546e+08	
       988.183	     2.48381e+08	
       988.379	     2.52783e+08	
       988.575	     2.57160e+08	
       988.620	     2.58170e+08	
       988.770	     2.61555e+08	
       988.793	     2.62062e+08	
       988.966	     2.64744e+08	
       989.139	     2.67226e+08	
       989.312	     2.69653e+08	
       989.485	     2.71927e+08	
       989.658	     2.71925e+08	
       989.832	     2.71593e+08	
       990.005	     2.71172e+08	
       990.351	     2.71187e+08	
       990.524	     2.71827e+08	
       990.697	     2.72395e+08	
