# Koester WD models
# teff = 18500 K (value for the effective temperature for the model. Temperatures are given in K)
# logg = 8.75 log(cm/s2) (value for Log(G) for the model.)
#
#   WAVELENGTH	#           FLUX	
#   (ANGSTROM)	#  (ERG/CM2/S/A)	
##############	################	
       899.230	     4.30869e+06	
       904.235	     4.50621e+06	
       908.450	     4.67733e+06	
       909.241	     4.70991e+06	
       910.032	     4.74258e+06	
       911.193	     4.79071e+06	
       911.613	     4.80805e+06	
       911.824	     4.81663e+06	
       911.929	     4.82090e+06	
       912.034	     4.82514e+06	
       912.139	     4.87739e+06	
       912.244	     4.92900e+06	
       912.349	     4.98005e+06	
       912.454	     5.03048e+06	
       912.559	     5.08036e+06	
       912.664	     5.12915e+06	
       912.770	     5.17697e+06	
       912.875	     5.22324e+06	
       912.886	     5.22799e+06	
       913.085	     5.30577e+06	
       913.284	     5.37024e+06	
       913.339	     5.38356e+06	
       913.435	     5.40580e+06	
       913.483	     5.41900e+06	
       913.531	     5.43031e+06	
       913.625	     5.44297e+06	
       913.724	     5.45201e+06	
       913.822	     5.46672e+06	
       913.871	     5.47199e+06	
       914.018	     5.45921e+06	
       914.165	     5.43433e+06	
       914.312	     5.46706e+06	
       914.343	     5.46480e+06	
       914.459	     5.37354e+06	
       914.575	     5.28702e+06	
       914.692	     5.38981e+06	
       914.808	     5.45443e+06	
       914.924	     5.26408e+06	
       915.009	     5.04728e+06	
       915.040	     4.99614e+06	
       915.071	     4.97961e+06	
       915.133	     5.06258e+06	
       915.257	     5.40517e+06	
       915.381	     5.49502e+06	
       915.505	     5.11370e+06	
       915.609	     4.65308e+06	
       915.617	     4.62791e+06	
       915.630	     4.58459e+06	
       915.643	     4.55167e+06	
       915.677	     4.52308e+06	
       915.745	     4.70124e+06	
       915.881	     5.44410e+06	
       916.017	     5.83931e+06	
       916.153	     5.61868e+06	
       916.289	     4.80321e+06	
       916.379	     4.20219e+06	
       916.421	     4.08410e+06	
       916.425	     4.08228e+06	
       916.429	     4.08219e+06	
       916.479	     4.22478e+06	
       916.580	     4.97713e+06	
       916.680	     5.76724e+06	
       916.780	     6.31036e+06	
       916.880	     6.54384e+06	
       916.980	     6.39653e+06	
       917.080	     5.90720e+06	
       917.180	     5.10540e+06	
       917.182	     5.08734e+06	
       917.280	     4.12306e+06	
       917.378	     3.57714e+06	
       917.575	     5.18576e+06	
       917.771	     6.88065e+06	
       917.967	     7.59329e+06	
       918.163	     7.05064e+06	
       918.359	     5.39845e+06	
       918.510	     3.73366e+06	
       918.556	     3.31912e+06	
       918.602	     3.16490e+06	
       918.694	     3.74384e+06	
       918.878	     5.87176e+06	
       919.062	     7.66725e+06	
       919.201	     8.60419e+06	
       919.241	     8.78842e+06	
       919.246	     8.80843e+06	
       919.251	     8.82778e+06	
       919.301	     8.98159e+06	
       919.402	     9.09259e+06	
       919.502	     8.98373e+06	
       919.602	     8.60042e+06	
       919.702	     7.95426e+06	
       919.802	     7.14929e+06	
       919.902	     6.14951e+06	
       920.002	     5.02297e+06	
       920.102	     3.75596e+06	
       920.165	     3.07592e+06	
       920.189	     2.93604e+06	
       920.202	     2.89777e+06	
       920.215	     2.88478e+06	
       920.265	     3.07917e+06	
       920.366	     4.26399e+06	
       920.466	     5.49006e+06	
       920.566	     6.62471e+06	
       920.666	     7.70139e+06	
       920.766	     8.65025e+06	
       920.866	     9.52188e+06	
       920.966	     1.02008e+07	
       921.066	     1.07206e+07	
       921.166	     1.10734e+07	
       921.266	     1.12357e+07	
       921.367	     1.12331e+07	
       921.467	     1.10502e+07	
       921.567	     1.06624e+07	
       921.667	     1.01094e+07	
       921.767	     9.39864e+06	
       921.867	     8.51865e+06	
       921.967	     7.57476e+06	
       922.067	     6.49772e+06	
       922.167	     5.29990e+06	
       922.267	     4.00729e+06	
       922.331	     3.14001e+06	
       922.368	     2.82749e+06	
       922.405	     2.73176e+06	
       922.479	     3.14477e+06	
       922.627	     5.14486e+06	
       922.740	     6.53366e+06	
       922.775	     6.93258e+06	
       922.810	     7.34005e+06	
       922.880	     8.07939e+06	
       923.020	     9.53838e+06	
       923.160	     1.08416e+07	
       923.301	     1.20092e+07	
       923.441	     1.29360e+07	
       923.581	     1.36287e+07	
       923.721	     1.40827e+07	
       923.861	     1.43251e+07	
       924.001	     1.43737e+07	
       924.141	     1.42097e+07	
       924.282	     1.38135e+07	
       924.422	     1.31679e+07	
       924.562	     1.22783e+07	
       924.702	     1.11581e+07	
       924.842	     9.91923e+06	
       924.982	     8.48620e+06	
       925.122	     6.95922e+06	
       925.262	     5.18938e+06	
       925.322	     4.35334e+06	
       925.403	     3.16949e+06	
       925.484	     2.68346e+06	
       925.646	     4.36722e+06	
       925.808	     6.56062e+06	
       925.970	     8.42933e+06	
       926.132	     1.01821e+07	
       926.220	     1.10631e+07	
       926.295	     1.17771e+07	
       926.369	     1.24946e+07	
       926.517	     1.38054e+07	
       926.665	     1.49522e+07	
       926.813	     1.59463e+07	
       926.961	     1.67728e+07	
       927.109	     1.74379e+07	
       927.257	     1.79655e+07	
       927.406	     1.83618e+07	
       927.554	     1.86278e+07	
       927.702	     1.87787e+07	
       927.850	     1.88147e+07	
       927.998	     1.87306e+07	
       928.038	     1.86819e+07	
       928.110	     1.85473e+07	
       928.146	     1.84651e+07	
       928.182	     1.83727e+07	
       928.327	     1.78947e+07	
       928.471	     1.72702e+07	
       928.615	     1.64678e+07	
       928.717	     1.57948e+07	
       928.759	     1.54895e+07	
       928.903	     1.44917e+07	
       928.917	     1.43870e+07	
       929.089	     1.30152e+07	
       929.261	     1.14268e+07	
       929.325	     1.08167e+07	
       929.434	     9.68842e+06	
       929.543	     8.50203e+06	
       929.652	     7.22858e+06	
       929.719	     6.37781e+06	
       929.753	     5.92043e+06	
       929.755	     5.89240e+06	
       929.761	     5.80683e+06	
       929.769	     5.69231e+06	
       929.819	     4.95401e+06	
       929.827	     4.83117e+06	
       929.883	     3.93814e+06	
       929.910	     3.48472e+06	
       929.939	     3.04760e+06	
       929.954	     2.90359e+06	
       929.968	     2.80827e+06	
       929.982	     2.76464e+06	
       929.996	     2.74557e+06	
       930.010	     2.74029e+06	
       930.024	     2.74635e+06	
       930.038	     2.76622e+06	
       930.052	     2.81067e+06	
       930.081	     3.05196e+06	
       930.137	     3.94795e+06	
       930.201	     4.97214e+06	
       930.247	     5.65992e+06	
       930.249	     5.68914e+06	
       930.251	     5.71830e+06	
       930.301	     6.41278e+06	
       930.326	     6.72345e+06	
       930.402	     7.68754e+06	
       930.478	     8.57828e+06	
       930.630	     1.02740e+07	
       930.633	     1.03067e+07	
       930.782	     1.18419e+07	
       930.931	     1.33152e+07	
       931.080	     1.46484e+07	
       931.229	     1.59026e+07	
       931.379	     1.71815e+07	
       931.516	     1.82819e+07	
       931.528	     1.83749e+07	
       931.677	     1.94584e+07	
       931.838	     2.05444e+07	
       931.999	     2.15117e+07	
       932.160	     2.22994e+07	
       932.321	     2.30054e+07	
       932.483	     2.36248e+07	
       932.644	     2.41691e+07	
       932.805	     2.46067e+07	
       932.966	     2.49481e+07	
       933.127	     2.52269e+07	
       933.173	     2.52947e+07	
       933.265	     2.54140e+07	
       933.288	     2.54403e+07	
       933.403	     2.55501e+07	
       933.432	     2.55694e+07	
       933.542	     2.56206e+07	
       933.652	     2.56332e+07	
       933.762	     2.56037e+07	
       933.872	     2.55316e+07	
       933.982	     2.54050e+07	
       934.092	     2.52172e+07	
       934.202	     2.49763e+07	
       934.312	     2.46798e+07	
       934.413	     2.43717e+07	
       934.422	     2.43441e+07	
       934.533	     2.39786e+07	
       934.652	     2.35223e+07	
       934.771	     2.30019e+07	
       934.890	     2.24315e+07	
       935.009	     2.17890e+07	
       935.026	     2.16915e+07	
       935.128	     2.11103e+07	
       935.230	     2.05422e+07	
       935.332	     1.99381e+07	
       935.434	     1.93103e+07	
       935.537	     1.86529e+07	
       935.639	     1.79594e+07	
       935.741	     1.72306e+07	
       935.843	     1.64563e+07	
       935.945	     1.56274e+07	
       935.950	     1.55855e+07	
       936.047	     1.47508e+07	
       936.144	     1.38676e+07	
       936.338	     1.19771e+07	
       936.464	     1.06556e+07	
       936.532	     9.89630e+06	
       936.601	     9.10270e+06	
       936.645	     8.57363e+06	
       936.714	     7.70548e+06	
       936.737	     7.40363e+06	
       936.829	     6.12529e+06	
       936.887	     5.19104e+06	
       936.944	     4.18595e+06	
       936.973	     3.63661e+06	
       937.001	     3.16044e+06	
       937.015	     3.02844e+06	
       937.029	     2.95094e+06	
       937.043	     2.92441e+06	
       937.058	     2.91577e+06	
       937.072	     2.91430e+06	
       937.086	     2.91659e+06	
       937.101	     2.92610e+06	
       937.115	     2.95348e+06	
       937.143	     3.16490e+06	
       937.150	     3.26763e+06	
       937.186	     3.93186e+06	
       937.199	     4.17832e+06	
       937.250	     5.09098e+06	
       937.314	     6.13760e+06	
       937.341	     6.53919e+06	
       937.442	     7.91392e+06	
       937.543	     9.17860e+06	
       937.645	     1.03722e+07	
       937.746	     1.14962e+07	
       937.847	     1.25548e+07	
       937.896	     1.30611e+07	
       937.948	     1.35889e+07	
       938.000	     1.41007e+07	
       938.104	     1.50957e+07	
       938.208	     1.60426e+07	
       938.312	     1.69482e+07	
       938.416	     1.78047e+07	
       938.520	     1.86252e+07	
       938.543	     1.88034e+07	
       938.556	     1.89038e+07	
       938.624	     1.94226e+07	
       938.729	     2.01939e+07	
       938.914	     2.15407e+07	
       939.093	     2.28286e+07	
       939.271	     2.41681e+07	
       939.449	     2.54355e+07	
       939.628	     2.66632e+07	
       939.807	     2.78588e+07	
       939.986	     2.90845e+07	
       940.164	     3.02501e+07	
       940.343	     3.13264e+07	
       940.521	     3.23402e+07	
       940.580	     3.26613e+07	
       940.660	     3.30907e+07	
       940.700	     3.33012e+07	
       940.740	     3.35073e+07	
       940.901	     3.42346e+07	
       941.061	     3.49179e+07	
       941.221	     3.55572e+07	
       941.381	     3.61399e+07	
       941.541	     3.66404e+07	
       941.701	     3.71088e+07	
       942.022	     3.79467e+07	
       942.342	     3.86400e+07	
       942.662	     3.91534e+07	
       942.917	     3.94392e+07	
       942.982	     3.94936e+07	
       943.048	     3.95401e+07	
       943.178	     3.96105e+07	
       943.438	     3.95856e+07	
       943.698	     3.93752e+07	
       943.828	     3.91992e+07	
       943.958	     3.89743e+07	
       944.088	     3.86919e+07	
       944.219	     3.83463e+07	
       944.349	     3.79460e+07	
       944.479	     3.74905e+07	
       944.609	     3.69816e+07	
       944.691	     3.66325e+07	
       944.739	     3.64183e+07	
       944.845	     3.59643e+07	
       944.999	     3.52616e+07	
       945.153	     3.45019e+07	
       945.308	     3.36889e+07	
       945.616	     3.20059e+07	
       945.924	     3.01641e+07	
       946.232	     2.83136e+07	
       946.540	     2.64853e+07	
       946.849	     2.46075e+07	
       947.004	     2.36277e+07	
       947.158	     2.26166e+07	
       947.312	     2.15628e+07	
       947.468	     2.04572e+07	
       947.471	     2.04352e+07	
       947.622	     1.92910e+07	
       947.624	     1.92794e+07	
       947.777	     1.80485e+07	
       947.930	     1.67034e+07	
       948.033	     1.57361e+07	
       948.083	     1.52466e+07	
       948.133	     1.47471e+07	
       948.233	     1.37021e+07	
       948.333	     1.26266e+07	
       948.433	     1.14767e+07	
       948.495	     1.07281e+07	
       948.521	     1.04043e+07	
       948.534	     1.02517e+07	
       948.546	     1.00982e+07	
       948.596	     9.44944e+06	
       948.615	     9.19770e+06	
       948.661	     8.56816e+06	
       948.696	     8.07220e+06	
       948.777	     6.84927e+06	
       948.835	     5.82143e+06	
       948.893	     4.66084e+06	
       948.922	     4.01785e+06	
       948.951	     3.44972e+06	
       948.966	     3.32525e+06	
       948.980	     3.28051e+06	
       948.994	     3.27238e+06	
       949.009	     3.27121e+06	
       949.023	     3.27143e+06	
       949.037	     3.27209e+06	
       949.052	     3.27423e+06	
       949.066	     3.28328e+06	
       949.095	     3.45453e+06	
       949.153	     4.67211e+06	
       949.230	     6.19198e+06	
       949.258	     6.69904e+06	
       949.269	     6.87927e+06	
       949.280	     7.05784e+06	
       949.330	     7.82436e+06	
       949.360	     8.26405e+06	
       949.430	     9.24863e+06	
       949.500	     1.01801e+07	
       949.640	     1.19275e+07	
       949.781	     1.35314e+07	
       949.795	     1.36845e+07	
       949.879	     1.45998e+07	
       949.921	     1.50441e+07	
       949.963	     1.54792e+07	
       950.131	     1.71412e+07	
       950.299	     1.86717e+07	
       950.467	     2.00833e+07	
       950.635	     2.14171e+07	
       950.719	     2.20623e+07	
       950.804	     2.26938e+07	
       950.888	     2.33152e+07	
       951.056	     2.45288e+07	
       951.392	     2.68887e+07	
       951.560	     2.80586e+07	
       951.728	     2.92300e+07	
       951.896	     3.04974e+07	
       952.065	     3.17700e+07	
       952.233	     3.30857e+07	
       952.401	     3.44504e+07	
       952.688	     3.67711e+07	
       952.737	     3.71917e+07	
       952.788	     3.76319e+07	
       952.888	     3.84996e+07	
       953.089	     4.02554e+07	
       953.289	     4.20405e+07	
       953.489	     4.39719e+07	
       953.889	     4.78706e+07	
       954.290	     5.16723e+07	
       954.490	     5.35249e+07	
       954.690	     5.53514e+07	
       954.890	     5.70761e+07	
       955.090	     5.86039e+07	
       955.290	     6.00993e+07	
       955.491	     6.15608e+07	
       955.768	     6.35252e+07	
       955.891	     6.43414e+07	
       956.014	     6.51375e+07	
       956.260	     6.67218e+07	
       956.753	     6.97594e+07	
       957.245	     7.26154e+07	
       957.738	     7.52716e+07	
       958.156	     7.73520e+07	
       958.230	     7.77026e+07	
       958.722	     7.99077e+07	
       959.289	     8.20816e+07	
       959.572	     8.30518e+07	
       959.855	     8.39028e+07	
       960.139	     8.46342e+07	
       960.380	     8.51485e+07	
       960.414	     8.52132e+07	
       960.422	     8.52280e+07	
       960.430	     8.52427e+07	
       960.480	     8.53602e+07	
       960.580	     8.55808e+07	
       960.780	     8.59618e+07	
       961.180	     8.64635e+07	
       961.581	     8.66118e+07	
       961.981	     8.63878e+07	
       962.381	     8.57762e+07	
       962.582	     8.53253e+07	
       962.782	     8.47790e+07	
       962.982	     8.41133e+07	
       963.182	     8.33571e+07	
       963.582	     8.15674e+07	
       963.735	     8.07908e+07	
       963.983	     7.94235e+07	
       964.231	     7.79058e+07	
       964.479	     7.62810e+07	
       964.727	     7.45541e+07	
       964.976	     7.27053e+07	
       965.224	     7.07795e+07	
       965.472	     6.87619e+07	
       965.968	     6.45437e+07	
       966.465	     6.01775e+07	
       966.961	     5.57526e+07	
       967.876	     4.77689e+07	
       967.954	     4.71088e+07	
       968.032	     4.64450e+07	
       968.188	     4.51167e+07	
       968.500	     4.25211e+07	
       968.953	     3.88370e+07	
       969.125	     3.74481e+07	
       969.297	     3.60576e+07	
       969.356	     3.55763e+07	
       969.641	     3.32286e+07	
       969.927	     3.08179e+07	
       970.069	     2.95666e+07	
       970.212	     2.82759e+07	
       970.354	     2.69369e+07	
       970.497	     2.55326e+07	
       970.639	     2.40520e+07	
       970.690	     2.34929e+07	
       970.782	     2.24436e+07	
       970.874	     2.13476e+07	
       971.058	     1.89612e+07	
       971.137	     1.78388e+07	
       971.243	     1.62272e+07	
       971.348	     1.44653e+07	
       971.453	     1.25302e+07	
       971.531	     1.09660e+07	
       971.558	     1.03917e+07	
       971.575	     1.00248e+07	
       971.585	     9.80510e+06	
       971.639	     8.57218e+06	
       971.644	     8.45371e+06	
       971.703	     6.99394e+06	
       971.732	     6.22931e+06	
       971.762	     5.40586e+06	
       971.778	     4.95156e+06	
       971.792	     4.56891e+06	
       971.806	     4.23911e+06	
       971.821	     4.06026e+06	
       971.827	     4.05306e+06	
       971.833	     4.05322e+06	
       971.836	     4.05335e+06	
       971.839	     4.05344e+06	
       971.851	     4.05397e+06	
       971.866	     4.14015e+06	
       971.880	     4.41959e+06	
       971.910	     5.24121e+06	
       971.969	     6.85285e+06	
       972.037	     8.55255e+06	
       972.087	     9.70988e+06	
       972.137	     1.08038e+07	
       972.150	     1.10786e+07	
       972.237	     1.28296e+07	
       972.324	     1.44392e+07	
       972.499	     1.72935e+07	
       972.548	     1.80170e+07	
       972.673	     1.97253e+07	
       972.798	     2.12732e+07	
       972.923	     2.26817e+07	
       973.048	     2.39773e+07	
       973.173	     2.51752e+07	
       973.298	     2.62955e+07	
       973.423	     2.73663e+07	
       973.548	     2.83872e+07	
       973.601	     2.88077e+07	
       973.673	     2.93704e+07	
       973.746	     2.99219e+07	
       973.890	     3.10054e+07	
       974.178	     3.30574e+07	
       974.466	     3.50680e+07	
       975.043	     3.89630e+07	
       975.556	     4.23377e+07	
       975.598	     4.26038e+07	
       975.619	     4.27370e+07	
       975.640	     4.28708e+07	
       975.724	     4.34099e+07	
       975.892	     4.45123e+07	
       976.228	     4.66963e+07	
       976.397	     4.78292e+07	
       976.565	     4.90123e+07	
       976.733	     5.02595e+07	
       976.901	     5.15853e+07	
       977.069	     5.30024e+07	
       977.237	     5.45349e+07	
       977.574	     5.74151e+07	
       977.910	     6.05787e+07	
       978.078	     6.21652e+07	
       978.246	     6.37646e+07	
       978.414	     6.54717e+07	
       978.582	     6.73027e+07	
       978.750	     6.93020e+07	
       978.919	     7.14945e+07	
       979.087	     7.39047e+07	
       979.105	     7.41774e+07	
       979.205	     7.57517e+07	
       979.255	     7.65788e+07	
       979.305	     7.74346e+07	
       979.505	     8.05077e+07	
       979.705	     8.39484e+07	
       979.905	     8.78487e+07	
       980.105	     9.13054e+07	
       980.306	     9.45161e+07	
       980.506	     9.79841e+07	
       980.706	     1.01486e+08	
       980.906	     1.04394e+08	
       981.106	     1.07426e+08	
       981.506	     1.13617e+08	
       982.307	     1.26089e+08	
       982.707	     1.32338e+08	
       983.108	     1.38781e+08	
       983.508	     1.45623e+08	
       983.863	     1.52181e+08	
       983.893	     1.52754e+08	
       983.908	     1.53042e+08	
       983.923	     1.53330e+08	
       983.983	     1.54537e+08	
       984.103	     1.56844e+08	
       984.344	     1.61313e+08	
       984.824	     1.70438e+08	
       984.951	     1.72718e+08	
       985.785	     1.88313e+08	
       986.202	     1.96378e+08	
