# Koester WD models
# teff = 18500 K (value for the effective temperature for the model. Temperatures are given in K)
# logg = 8.25 log(cm/s2) (value for Log(G) for the model.)
#
#   WAVELENGTH	#           FLUX	
#   (ANGSTROM)	#  (ERG/CM2/S/A)	
##############	################	
       899.230	     4.21586e+06	
       904.235	     4.40945e+06	
       908.450	     4.57721e+06	
       909.241	     4.60912e+06	
       910.032	     4.64120e+06	
       911.193	     4.68858e+06	
       911.613	     4.70563e+06	
       911.824	     4.71409e+06	
       911.929	     4.71826e+06	
       912.034	     4.72244e+06	
       912.139	     4.80076e+06	
       912.244	     4.87817e+06	
       912.349	     4.95489e+06	
       912.454	     5.03092e+06	
       912.559	     5.10612e+06	
       912.664	     5.18002e+06	
       912.770	     5.25246e+06	
       912.875	     5.32220e+06	
       912.886	     5.32924e+06	
       912.980	     5.38604e+06	
       913.085	     5.43549e+06	
       913.284	     5.48949e+06	
       913.433	     5.50677e+06	
       913.445	     5.50674e+06	
       913.483	     5.51086e+06	
       913.533	     5.52110e+06	
       913.633	     5.54180e+06	
       913.822	     5.48830e+06	
       913.855	     5.50121e+06	
       914.010	     5.53231e+06	
       914.165	     5.31847e+06	
       914.320	     5.56499e+06	
       914.375	     5.56467e+06	
       914.475	     5.25654e+06	
       914.575	     4.98558e+06	
       914.676	     5.29669e+06	
       914.776	     5.63627e+06	
       914.876	     5.50504e+06	
       914.881	     5.48346e+06	
       914.976	     4.91464e+06	
       915.071	     4.50388e+06	
       915.261	     5.59684e+06	
       915.451	     5.58553e+06	
       915.592	     4.43351e+06	
       915.642	     4.05463e+06	
       915.692	     3.98778e+06	
       915.792	     4.77890e+06	
       915.892	     5.74996e+06	
       915.992	     6.28749e+06	
       916.092	     6.28963e+06	
       916.192	     5.74616e+06	
       916.292	     4.72876e+06	
       916.342	     4.12318e+06	
       916.392	     3.63533e+06	
       916.442	     3.52455e+06	
       916.543	     4.46684e+06	
       916.643	     5.73416e+06	
       916.743	     6.67500e+06	
       916.843	     7.18162e+06	
       916.943	     7.20832e+06	
       917.043	     6.72414e+06	
       917.143	     5.78518e+06	
       917.243	     4.50841e+06	
       917.293	     3.79398e+06	
       917.343	     3.24671e+06	
       917.393	     3.14307e+06	
       917.494	     4.22814e+06	
       917.594	     5.67281e+06	
       917.694	     6.89108e+06	
       917.794	     7.82087e+06	
       917.894	     8.39704e+06	
       917.994	     8.57253e+06	
       918.094	     8.34024e+06	
       918.194	     7.67570e+06	
       918.294	     6.69916e+06	
       918.394	     5.44133e+06	
       918.495	     3.87911e+06	
       918.545	     3.18382e+06	
       918.595	     2.84353e+06	
       918.645	     3.03359e+06	
       918.745	     4.50250e+06	
       918.845	     5.98103e+06	
       919.045	     8.46128e+06	
       919.195	     9.72854e+06	
       919.245	     1.00058e+07	
       919.295	     1.02017e+07	
       919.396	     1.03603e+07	
       919.496	     1.02590e+07	
       919.596	     9.84471e+06	
       919.696	     9.13603e+06	
       919.796	     8.17094e+06	
       919.896	     6.98505e+06	
       919.996	     5.61308e+06	
       920.096	     3.98410e+06	
       920.146	     3.15614e+06	
       920.196	     2.69402e+06	
       920.246	     2.75237e+06	
       920.346	     4.21671e+06	
       920.447	     5.80739e+06	
       920.547	     7.22381e+06	
       920.647	     8.51029e+06	
       920.747	     9.63985e+06	
       920.847	     1.06303e+07	
       920.947	     1.14233e+07	
       921.047	     1.20112e+07	
       921.147	     1.24247e+07	
       921.247	     1.26316e+07	
       921.348	     1.26683e+07	
       921.448	     1.25174e+07	
       921.548	     1.21621e+07	
       921.648	     1.16090e+07	
       921.748	     1.08731e+07	
       921.848	     9.93921e+06	
       921.948	     8.88229e+06	
       922.048	     7.63065e+06	
       922.148	     6.23647e+06	
       922.248	     4.65669e+06	
       922.292	     3.80852e+06	
       922.349	     2.88051e+06	
       922.405	     2.57345e+06	
       922.517	     3.81710e+06	
       922.629	     5.78103e+06	
       922.672	     6.43986e+06	
       922.741	     7.43426e+06	
       922.810	     8.37238e+06	
       922.948	     1.00419e+07	
       923.086	     1.15515e+07	
       923.224	     1.28389e+07	
       923.363	     1.39374e+07	
       923.501	     1.47796e+07	
       923.639	     1.53827e+07	
       923.777	     1.57478e+07	
       923.915	     1.59233e+07	
       924.053	     1.59076e+07	
       924.191	     1.56656e+07	
       924.330	     1.51889e+07	
       924.468	     1.44475e+07	
       924.606	     1.34446e+07	
       924.744	     1.22592e+07	
       924.882	     1.08714e+07	
       925.020	     9.30094e+06	
       925.158	     7.45968e+06	
       925.297	     5.25943e+06	
       925.385	     3.57956e+06	
       925.435	     2.74066e+06	
       925.485	     2.56607e+06	
       925.585	     3.62471e+06	
       925.685	     5.52653e+06	
       925.785	     7.15256e+06	
       925.885	     8.58842e+06	
       925.985	     9.86055e+06	
       926.085	     1.10451e+07	
       926.185	     1.21630e+07	
       926.202	     1.23422e+07	
       926.286	     1.31810e+07	
       926.369	     1.40101e+07	
       926.535	     1.55427e+07	
       926.701	     1.68373e+07	
       926.867	     1.79126e+07	
       927.033	     1.87602e+07	
       927.199	     1.94219e+07	
       927.366	     1.99213e+07	
       927.532	     2.02632e+07	
       927.698	     2.04543e+07	
       927.864	     2.05012e+07	
       927.878	     2.04985e+07	
       928.030	     2.03965e+07	
       928.182	     2.00672e+07	
       928.335	     1.95441e+07	
       928.487	     1.88273e+07	
       928.639	     1.79185e+07	
       928.791	     1.68656e+07	
       928.797	     1.68256e+07	
       928.943	     1.57690e+07	
       929.089	     1.45656e+07	
       929.185	     1.36723e+07	
       929.235	     1.31812e+07	
       929.285	     1.26851e+07	
       929.386	     1.16156e+07	
       929.429	     1.11205e+07	
       929.486	     1.04583e+07	
       929.543	     9.75917e+06	
       929.545	     9.73400e+06	
       929.657	     8.21413e+06	
       929.769	     6.44617e+06	
       929.831	     5.32384e+06	
       929.881	     4.31620e+06	
       929.931	     3.20540e+06	
       929.981	     2.66705e+06	
       930.025	     2.64595e+06	
       930.031	     2.65280e+06	
       930.081	     3.06993e+06	
       930.137	     4.28529e+06	
       930.199	     5.53417e+06	
       930.249	     6.43986e+06	
       930.299	     7.28212e+06	
       930.322	     7.62791e+06	
       930.400	     8.79200e+06	
       930.478	     9.84453e+06	
       930.634	     1.17476e+07	
       930.649	     1.19224e+07	
       930.790	     1.34527e+07	
       930.931	     1.48888e+07	
       931.072	     1.61905e+07	
       931.213	     1.73974e+07	
       931.355	     1.86307e+07	
       931.436	     1.93269e+07	
       931.496	     1.98327e+07	
       931.536	     2.01704e+07	
       931.637	     2.09667e+07	
       931.737	     2.17106e+07	
       931.838	     2.24255e+07	
       931.939	     2.30897e+07	
       932.039	     2.36742e+07	
       932.140	     2.41836e+07	
       932.240	     2.46635e+07	
       932.341	     2.51105e+07	
       932.442	     2.55206e+07	
       932.543	     2.59038e+07	
       932.643	     2.62590e+07	
       932.744	     2.65730e+07	
       932.844	     2.68340e+07	
       932.945	     2.70652e+07	
       933.045	     2.72696e+07	
       933.089	     2.73508e+07	
       933.246	     2.75961e+07	
       933.265	     2.76209e+07	
       933.403	     2.77698e+07	
       933.432	     2.77916e+07	
       933.542	     2.78513e+07	
       933.652	     2.78694e+07	
       933.762	     2.78437e+07	
       933.872	     2.77723e+07	
       933.982	     2.76371e+07	
       934.092	     2.74284e+07	
       934.202	     2.71603e+07	
       934.312	     2.68317e+07	
       934.413	     2.64889e+07	
       934.422	     2.64580e+07	
       934.533	     2.60477e+07	
       934.652	     2.55355e+07	
       934.771	     2.49525e+07	
       934.890	     2.43068e+07	
       935.009	     2.35906e+07	
       935.026	     2.34826e+07	
       935.128	     2.28544e+07	
       935.230	     2.22676e+07	
       935.332	     2.16481e+07	
       935.434	     2.10035e+07	
       935.537	     2.03278e+07	
       935.639	     1.96148e+07	
       935.741	     1.88729e+07	
       935.843	     1.80854e+07	
       935.945	     1.72419e+07	
       935.950	     1.71990e+07	
       936.047	     1.63450e+07	
       936.144	     1.54394e+07	
       936.338	     1.35029e+07	
       936.464	     1.21106e+07	
       936.532	     1.12934e+07	
       936.601	     1.04196e+07	
       936.645	     9.82213e+06	
       936.714	     8.82131e+06	
       936.737	     8.46760e+06	
       936.829	     6.93827e+06	
       936.887	     5.81597e+06	
       936.944	     4.56100e+06	
       936.951	     4.39226e+06	
       937.001	     3.16384e+06	
       937.051	     2.81853e+06	
       937.101	     2.82675e+06	
       937.151	     3.31843e+06	
       937.201	     4.59492e+06	
       937.251	     5.71217e+06	
       937.301	     6.70739e+06	
       937.351	     7.60686e+06	
       937.359	     7.74076e+06	
       937.451	     9.19720e+06	
       937.543	     1.05048e+07	
       937.728	     1.28026e+07	
       937.824	     1.38669e+07	
       937.912	     1.47970e+07	
       938.000	     1.56898e+07	
       938.176	     1.73851e+07	
       938.352	     1.89407e+07	
       938.528	     2.03703e+07	
       938.705	     2.17419e+07	
       938.831	     2.26916e+07	
       938.881	     2.30665e+07	
       938.931	     2.34380e+07	
       939.031	     2.41754e+07	
       939.181	     2.54314e+07	
       939.223	     2.57839e+07	
       939.231	     2.58506e+07	
       939.281	     2.62643e+07	
       939.381	     2.70750e+07	
       939.581	     2.86631e+07	
       939.602	     2.88257e+07	
       939.982	     3.17948e+07	
       940.171	     3.32657e+07	
       940.361	     3.46144e+07	
       940.550	     3.58955e+07	
       940.690	     3.68082e+07	
       940.740	     3.71258e+07	
       940.790	     3.74208e+07	
       940.891	     3.79982e+07	
       941.091	     3.90974e+07	
       941.291	     4.01178e+07	
       941.491	     4.09745e+07	
       941.691	     4.17370e+07	
       941.891	     4.24360e+07	
       942.092	     4.30678e+07	
       942.292	     4.36232e+07	
       942.337	     4.37313e+07	
       942.492	     4.40693e+07	
       942.515	     4.41139e+07	
       942.692	     4.44249e+07	
       942.870	     4.46590e+07	
       943.048	     4.48117e+07	
       943.225	     4.48849e+07	
       943.403	     4.48224e+07	
       943.580	     4.46493e+07	
       943.758	     4.43602e+07	
       943.935	     4.39540e+07	
       944.114	     4.34108e+07	
       944.291	     4.27153e+07	
       944.469	     4.18925e+07	
       944.646	     4.09469e+07	
       944.824	     3.99400e+07	
       945.051	     3.86089e+07	
       945.179	     3.77993e+07	
       945.308	     3.69527e+07	
       945.564	     3.52081e+07	
       945.820	     3.33464e+07	
       946.076	     3.15711e+07	
       946.333	     2.98208e+07	
       946.589	     2.81806e+07	
       947.044	     2.51692e+07	
       947.101	     2.47841e+07	
       947.158	     2.43952e+07	
       947.272	     2.36034e+07	
       947.386	     2.27911e+07	
       947.501	     2.19521e+07	
       947.615	     2.10790e+07	
       947.729	     2.01653e+07	
       947.831	     1.92985e+07	
       947.843	     1.91930e+07	
       947.957	     1.81522e+07	
       948.083	     1.69248e+07	
       948.209	     1.56137e+07	
       948.335	     1.42118e+07	
       948.377	     1.37115e+07	
       948.461	     1.26565e+07	
       948.546	     1.15134e+07	
       948.651	     9.93485e+06	
       948.661	     9.77390e+06	
       948.714	     8.88961e+06	
       948.777	     7.74076e+06	
       948.835	     6.51444e+06	
       948.893	     5.07653e+06	
       948.901	     4.86017e+06	
       948.951	     3.41953e+06	
       949.001	     3.16264e+06	
       949.049	     3.16471e+06	
       949.051	     3.16506e+06	
       949.101	     3.53379e+06	
       949.153	     5.08872e+06	
       949.207	     6.44623e+06	
       949.257	     7.53495e+06	
       949.307	     8.49270e+06	
       949.314	     8.61843e+06	
       949.407	     1.01915e+07	
       949.500	     1.16052e+07	
       949.687	     1.40791e+07	
       949.783	     1.52108e+07	
       949.873	     1.62176e+07	
       949.963	     1.71793e+07	
       950.143	     1.89844e+07	
       950.323	     2.06294e+07	
       950.503	     2.21401e+07	
       950.683	     2.35688e+07	
       950.814	     2.45662e+07	
       950.864	     2.49444e+07	
       950.914	     2.53201e+07	
       951.014	     2.60656e+07	
       951.214	     2.75561e+07	
       951.414	     2.90443e+07	
       951.614	     3.05446e+07	
       951.814	     3.21190e+07	
       952.015	     3.38042e+07	
       952.092	     3.44655e+07	
       952.215	     3.55876e+07	
       952.415	     3.75555e+07	
       952.577	     3.91678e+07	
       952.738	     4.08193e+07	
       952.899	     4.25494e+07	
       953.061	     4.43225e+07	
       953.223	     4.61409e+07	
       953.385	     4.81091e+07	
       953.546	     5.02045e+07	
       953.708	     5.23480e+07	
       954.031	     5.67447e+07	
       954.355	     6.11530e+07	
       954.678	     6.56254e+07	
       955.001	     6.98373e+07	
       955.324	     7.37297e+07	
       955.648	     7.75298e+07	
       955.921	     8.05413e+07	
       955.971	     8.10603e+07	
       956.021	     8.15787e+07	
       956.121	     8.26255e+07	
       956.321	     8.46977e+07	
       956.722	     8.87415e+07	
       957.122	     9.26327e+07	
       957.522	     9.63395e+07	
       957.923	     9.98266e+07	
       958.323	     1.03077e+08	
       958.723	     1.06068e+08	
       958.959	     1.07672e+08	
       959.124	     1.08724e+08	
       959.289	     1.09713e+08	
       959.619	     1.11592e+08	
       959.949	     1.13177e+08	
       960.130	     1.13913e+08	
       960.280	     1.14445e+08	
       960.430	     1.14903e+08	
       960.730	     1.15930e+08	
       961.030	     1.16597e+08	
       961.331	     1.16893e+08	
       961.631	     1.16796e+08	
       961.931	     1.16299e+08	
       962.231	     1.15398e+08	
       962.532	     1.14087e+08	
       962.832	     1.12378e+08	
       963.132	     1.10238e+08	
       963.234	     1.09431e+08	
       963.432	     1.07754e+08	
       963.483	     1.07293e+08	
       963.733	     1.04916e+08	
       963.982	     1.02350e+08	
       964.231	     9.95527e+07	
       964.480	     9.66191e+07	
       964.729	     9.35566e+07	
       964.979	     9.03327e+07	
       965.228	     8.70397e+07	
       965.726	     8.02372e+07	
       966.225	     7.34369e+07	
       966.411	     7.09365e+07	
       966.723	     6.68456e+07	
       966.816	     6.56257e+07	
       967.221	     6.05363e+07	
       967.425	     5.81044e+07	
       967.627	     5.57356e+07	
       967.830	     5.34564e+07	
       967.982	     5.17932e+07	
       968.032	     5.12479e+07	
       968.082	     5.07047e+07	
       968.182	     4.96347e+07	
       968.382	     4.75546e+07	
       968.582	     4.55446e+07	
       968.783	     4.35852e+07	
       969.069	     4.08677e+07	
       969.124	     4.03547e+07	
       969.183	     3.98065e+07	
       969.297	     3.87550e+07	
       969.525	     3.66586e+07	
       969.927	     3.29845e+07	
       970.128	     3.11105e+07	
       970.328	     2.91882e+07	
       970.428	     2.81965e+07	
       970.528	     2.71782e+07	
       970.629	     2.61233e+07	
       970.729	     2.50036e+07	
       970.779	     2.44241e+07	
       970.829	     2.38346e+07	
       970.879	     2.32294e+07	
       970.979	     2.19607e+07	
       971.079	     2.05983e+07	
       971.180	     1.91187e+07	
       971.212	     1.86104e+07	
       971.280	     1.74904e+07	
       971.348	     1.62811e+07	
       971.382	     1.56378e+07	
       971.484	     1.35394e+07	
       971.585	     1.11129e+07	
       971.636	     9.73281e+06	
       971.686	     8.28620e+06	
       971.736	     6.71415e+06	
       971.786	     4.98637e+06	
       971.836	     3.92156e+06	
       971.886	     4.81283e+06	
       971.936	     6.55814e+06	
       971.986	     8.15510e+06	
       972.036	     9.62282e+06	
       972.086	     1.09867e+07	
       972.136	     1.22510e+07	
       972.149	     1.25547e+07	
       972.236	     1.45196e+07	
       972.324	     1.62594e+07	
       972.500	     1.92362e+07	
       972.552	     2.00181e+07	
       972.675	     2.17125e+07	
       972.798	     2.32465e+07	
       972.921	     2.46400e+07	
       973.044	     2.59247e+07	
       973.167	     2.71197e+07	
       973.290	     2.82399e+07	
       973.413	     2.93193e+07	
       973.536	     3.03566e+07	
       973.573	     3.06623e+07	
       973.659	     3.13628e+07	
       973.746	     3.20540e+07	
       973.918	     3.34184e+07	
       974.262	     3.60353e+07	
       974.606	     3.86994e+07	
       974.949	     4.12582e+07	
       975.295	     4.39889e+07	
       975.640	     4.65245e+07	
       975.985	     4.92200e+07	
       976.157	     5.05633e+07	
       976.331	     5.19645e+07	
       976.503	     5.34366e+07	
       976.676	     5.50005e+07	
       976.848	     5.66781e+07	
       977.021	     5.84921e+07	
       977.193	     6.04769e+07	
       977.366	     6.24825e+07	
       977.538	     6.43964e+07	
       977.712	     6.64642e+07	
       977.884	     6.87107e+07	
       978.057	     7.09708e+07	
       978.229	     7.32340e+07	
       978.402	     7.56800e+07	
       978.574	     7.83438e+07	
       978.747	     8.13022e+07	
       978.881	     8.38120e+07	
       978.920	     8.45984e+07	
       978.987	     8.59713e+07	
       979.093	     8.82948e+07	
       979.199	     9.08043e+07	
       979.305	     9.35236e+07	
       979.411	     9.59650e+07	
       979.517	     9.85788e+07	
       979.623	     1.01385e+08	
       979.729	     1.04408e+08	
       979.835	     1.07672e+08	
       979.941	     1.11217e+08	
       980.047	     1.14186e+08	
       980.153	     1.16889e+08	
       980.366	     1.22685e+08	
       980.578	     1.29094e+08	
       980.790	     1.34934e+08	
       981.002	     1.40400e+08	
       981.214	     1.46175e+08	
       981.426	     1.52030e+08	
       981.851	     1.64005e+08	
       982.275	     1.76136e+08	
       982.699	     1.88530e+08	
       982.912	     1.94942e+08	
       983.124	     2.01550e+08	
       983.173	     2.03108e+08	
       983.336	     2.08381e+08	
       983.361	     2.09188e+08	
       983.548	     2.15700e+08	
       983.736	     2.22440e+08	
       983.923	     2.29442e+08	
       984.299	     2.43467e+08	
       985.049	     2.71524e+08	
       985.800	     3.00277e+08	
       986.482	     3.27414e+08	
       986.550	     3.30125e+08	
       986.618	     3.32852e+08	
       986.754	     3.38177e+08	
       986.890	     3.41334e+08	
       987.027	     3.44334e+08	
       987.299	     3.50146e+08	
       987.571	     3.55660e+08	
       987.843	     3.60689e+08	
       987.979	     3.63118e+08	
       988.115	     3.65477e+08	
       988.251	     3.69734e+08	
       988.388	     3.74223e+08	
       988.660	     3.83164e+08	
       988.932	     3.90786e+08	
       989.096	     3.94289e+08	
       989.204	     3.96557e+08	
       989.312	     3.98794e+08	
       989.420	     4.00914e+08	
       989.528	     4.02479e+08	
       989.636	     4.02334e+08	
       989.745	     4.02136e+08	
       989.853	     4.01888e+08	
       989.961	     4.01590e+08	
       990.177	     4.00848e+08	
       990.393	     4.01964e+08	
       990.609	     4.03201e+08	
       990.717	     4.03761e+08	
