# Koester WD models
# teff = 18000 K (value for the effective temperature for the model. Temperatures are given in K)
# logg = 9 log(cm/s2) (value for Log(G) for the model.)
#
#   WAVELENGTH	#           FLUX	
#   (ANGSTROM)	#  (ERG/CM2/S/A)	
##############	################	
       899.230	     3.04226e+06	
       904.235	     3.18774e+06	
       908.450	     3.31397e+06	
       909.241	     3.33801e+06	
       910.032	     3.36213e+06	
       911.193	     3.39766e+06	
       911.613	     3.41048e+06	
       911.824	     3.41683e+06	
       911.929	     3.41997e+06	
       912.034	     3.42311e+06	
       912.139	     3.45607e+06	
       912.244	     3.48871e+06	
       912.349	     3.52103e+06	
       912.454	     3.55355e+06	
       912.559	     3.58588e+06	
       912.664	     3.61776e+06	
       912.770	     3.64899e+06	
       912.875	     3.67896e+06	
       912.886	     3.68204e+06	
       913.037	     3.72166e+06	
       913.085	     3.73337e+06	
       913.284	     3.77802e+06	
       913.531	     3.82178e+06	
       913.649	     3.83164e+06	
       913.736	     3.84292e+06	
       913.779	     3.84839e+06	
       913.822	     3.85348e+06	
       913.994	     3.84594e+06	
       914.097	     3.84430e+06	
       914.165	     3.84619e+06	
       914.216	     3.84917e+06	
       914.336	     3.84600e+06	
       914.455	     3.80284e+06	
       914.575	     3.76649e+06	
       914.696	     3.81003e+06	
       914.815	     3.82605e+06	
       914.935	     3.70344e+06	
       915.021	     3.59665e+06	
       915.037	     3.58493e+06	
       915.054	     3.57699e+06	
       915.071	     3.57526e+06	
       915.121	     3.60394e+06	
       915.221	     3.74314e+06	
       915.321	     3.84327e+06	
       915.421	     3.78785e+06	
       915.521	     3.56140e+06	
       915.601	     3.35654e+06	
       915.609	     3.33499e+06	
       915.622	     3.31334e+06	
       915.643	     3.28174e+06	
       915.677	     3.26980e+06	
       915.745	     3.37124e+06	
       915.881	     3.81565e+06	
       916.017	     4.06946e+06	
       916.153	     3.92108e+06	
       916.289	     3.39773e+06	
       916.379	     3.04024e+06	
       916.421	     2.97506e+06	
       916.425	     2.97423e+06	
       916.429	     2.97439e+06	
       916.479	     3.05841e+06	
       916.580	     3.51796e+06	
       916.680	     4.03349e+06	
       916.780	     4.39619e+06	
       916.880	     4.55060e+06	
       916.980	     4.44850e+06	
       917.080	     4.11278e+06	
       917.180	     3.56866e+06	
       917.182	     3.55663e+06	
       917.280	     2.93216e+06	
       917.378	     2.60740e+06	
       917.575	     3.63039e+06	
       917.771	     4.78917e+06	
       917.967	     5.27090e+06	
       918.163	     4.88794e+06	
       918.359	     3.74726e+06	
       918.510	     2.64064e+06	
       918.556	     2.38984e+06	
       918.602	     2.30008e+06	
       918.694	     2.64847e+06	
       918.878	     4.08093e+06	
       919.062	     5.32302e+06	
       919.201	     5.97053e+06	
       919.241	     6.09862e+06	
       919.246	     6.11250e+06	
       919.251	     6.12595e+06	
       919.301	     6.23254e+06	
       919.402	     6.30782e+06	
       919.502	     6.22956e+06	
       919.602	     5.95897e+06	
       919.702	     5.50454e+06	
       919.802	     4.94631e+06	
       919.902	     4.25045e+06	
       920.002	     3.47297e+06	
       920.102	     2.62589e+06	
       920.165	     2.20676e+06	
       920.189	     2.12071e+06	
       920.202	     2.09911e+06	
       920.215	     2.09157e+06	
       920.265	     2.20919e+06	
       920.366	     2.96352e+06	
       920.466	     3.79652e+06	
       920.566	     4.58739e+06	
       920.666	     5.33571e+06	
       920.766	     6.00050e+06	
       920.866	     6.61685e+06	
       920.966	     7.09519e+06	
       921.066	     7.46593e+06	
       921.166	     7.71581e+06	
       921.266	     7.83011e+06	
       921.367	     7.82734e+06	
       921.467	     7.69715e+06	
       921.567	     7.41950e+06	
       921.667	     7.02331e+06	
       921.767	     6.52138e+06	
       921.867	     5.89652e+06	
       921.967	     5.23333e+06	
       922.067	     4.48283e+06	
       922.167	     3.65336e+06	
       922.267	     2.77666e+06	
       922.331	     2.22345e+06	
       922.368	     2.03569e+06	
       922.405	     1.98021e+06	
       922.479	     2.22695e+06	
       922.627	     3.54689e+06	
       922.670	     3.92822e+06	
       922.740	     4.50922e+06	
       922.775	     4.78923e+06	
       922.810	     5.07245e+06	
       922.950	     6.10499e+06	
       923.090	     7.10518e+06	
       923.230	     7.97829e+06	
       923.371	     8.73972e+06	
       923.511	     9.31281e+06	
       923.651	     9.73002e+06	
       923.791	     9.97270e+06	
       923.931	     1.00764e+07	
       924.071	     1.00368e+07	
       924.211	     9.83284e+06	
       924.352	     9.45937e+06	
       924.492	     8.91556e+06	
       924.632	     8.19243e+06	
       924.772	     7.34680e+06	
       924.912	     6.38805e+06	
       925.052	     5.35748e+06	
       925.192	     4.21470e+06	
       925.333	     2.89206e+06	
       925.434	     2.04135e+06	
       925.462	     1.96356e+06	
       925.473	     1.95260e+06	
       925.484	     1.94945e+06	
       925.534	     2.04351e+06	
       925.634	     2.89071e+06	
       925.734	     3.86548e+06	
       925.834	     4.74550e+06	
       925.934	     5.56008e+06	
       926.034	     6.32780e+06	
       926.134	     7.09054e+06	
       926.232	     7.78769e+06	
       926.301	     8.25796e+06	
       926.335	     8.49760e+06	
       926.369	     8.72920e+06	
       926.505	     9.59332e+06	
       926.641	     1.03610e+07	
       926.777	     1.10415e+07	
       926.913	     1.16247e+07	
       927.049	     1.21063e+07	
       927.185	     1.25031e+07	
       927.322	     1.28098e+07	
       927.458	     1.30407e+07	
       927.594	     1.31888e+07	
       927.730	     1.32707e+07	
       927.866	     1.32817e+07	
       928.002	     1.32180e+07	
       928.006	     1.32149e+07	
       928.094	     1.31119e+07	
       928.138	     1.30421e+07	
       928.182	     1.29613e+07	
       928.359	     1.25271e+07	
       928.535	     1.19227e+07	
       928.711	     1.11368e+07	
       928.887	     1.02490e+07	
       928.985	     9.71836e+06	
       929.037	     9.42069e+06	
       929.063	     9.26503e+06	
       929.089	     9.10537e+06	
       929.125	     8.87710e+06	
       929.193	     8.42619e+06	
       929.261	     7.96705e+06	
       929.398	     7.00098e+06	
       929.493	     6.27448e+06	
       929.525	     6.02520e+06	
       929.534	     5.95558e+06	
       929.543	     5.88568e+06	
       929.593	     5.48371e+06	
       929.617	     5.28655e+06	
       929.655	     4.96340e+06	
       929.693	     4.62521e+06	
       929.769	     3.92130e+06	
       929.827	     3.32676e+06	
       929.883	     2.72858e+06	
       929.910	     2.43823e+06	
       929.939	     2.17050e+06	
       929.954	     2.08836e+06	
       929.968	     2.03478e+06	
       929.982	     2.01069e+06	
       929.996	     2.00054e+06	
       930.010	     1.99771e+06	
       930.024	     2.00113e+06	
       930.038	     2.01188e+06	
       930.052	     2.03658e+06	
       930.081	     2.17372e+06	
       930.137	     2.73564e+06	
       930.201	     3.42358e+06	
       930.247	     3.89966e+06	
       930.249	     3.91986e+06	
       930.251	     3.93997e+06	
       930.301	     4.42110e+06	
       930.326	     4.63577e+06	
       930.402	     5.31042e+06	
       930.478	     5.94078e+06	
       930.630	     7.14580e+06	
       930.633	     7.16893e+06	
       930.782	     8.26663e+06	
       930.931	     9.32371e+06	
       931.080	     1.02780e+07	
       931.229	     1.11861e+07	
       931.379	     1.21054e+07	
       931.516	     1.28966e+07	
       931.528	     1.29632e+07	
       931.677	     1.37371e+07	
       931.838	     1.45165e+07	
       931.999	     1.52128e+07	
       932.160	     1.57815e+07	
       932.321	     1.62887e+07	
       932.483	     1.67322e+07	
       932.644	     1.71199e+07	
       932.805	     1.74301e+07	
       932.966	     1.76726e+07	
       933.127	     1.78699e+07	
       933.173	     1.79178e+07	
       933.265	     1.80022e+07	
       933.288	     1.80208e+07	
       933.403	     1.80986e+07	
       933.432	     1.81122e+07	
       933.542	     1.81482e+07	
       933.652	     1.81571e+07	
       933.762	     1.81363e+07	
       933.872	     1.80853e+07	
       933.982	     1.79964e+07	
       934.092	     1.78647e+07	
       934.202	     1.76948e+07	
       934.312	     1.74859e+07	
       934.413	     1.72685e+07	
       934.422	     1.72491e+07	
       934.533	     1.69903e+07	
       934.652	     1.66663e+07	
       934.771	     1.62976e+07	
       934.890	     1.58928e+07	
       935.009	     1.54371e+07	
       935.026	     1.53676e+07	
       935.128	     1.49521e+07	
       935.230	     1.45439e+07	
       935.332	     1.41096e+07	
       935.434	     1.36583e+07	
       935.537	     1.31835e+07	
       935.639	     1.26815e+07	
       935.741	     1.21563e+07	
       935.843	     1.15977e+07	
       935.945	     1.09983e+07	
       935.950	     1.09681e+07	
       936.047	     1.03701e+07	
       936.144	     9.73485e+06	
       936.338	     8.37385e+06	
       936.464	     7.42782e+06	
       936.532	     6.88216e+06	
       936.601	     6.31991e+06	
       936.645	     5.94264e+06	
       936.714	     5.33232e+06	
       936.737	     5.11938e+06	
       936.829	     4.22893e+06	
       936.887	     3.58198e+06	
       936.944	     2.90647e+06	
       936.973	     2.55490e+06	
       937.001	     2.26689e+06	
       937.015	     2.19337e+06	
       937.029	     2.15115e+06	
       937.043	     2.13798e+06	
       937.058	     2.13383e+06	
       937.072	     2.13324e+06	
       937.086	     2.13445e+06	
       937.101	     2.13926e+06	
       937.115	     2.15306e+06	
       937.143	     2.27020e+06	
       937.150	     2.33188e+06	
       937.186	     2.74145e+06	
       937.199	     2.90173e+06	
       937.250	     3.51384e+06	
       937.314	     4.23820e+06	
       937.341	     4.51858e+06	
       937.442	     5.47897e+06	
       937.543	     6.37495e+06	
       937.645	     7.22500e+06	
       937.746	     8.02931e+06	
       937.847	     8.79357e+06	
       937.896	     9.15693e+06	
       937.948	     9.53605e+06	
       938.000	     9.90601e+06	
       938.104	     1.06222e+07	
       938.208	     1.13027e+07	
       938.312	     1.19585e+07	
       938.416	     1.25770e+07	
       938.520	     1.31697e+07	
       938.543	     1.32986e+07	
       938.556	     1.33714e+07	
       938.624	     1.37470e+07	
       938.729	     1.43044e+07	
       938.914	     1.52729e+07	
       939.093	     1.61964e+07	
       939.271	     1.71453e+07	
       939.449	     1.80400e+07	
       939.628	     1.89028e+07	
       939.807	     1.97375e+07	
       939.986	     2.05828e+07	
       940.164	     2.13820e+07	
       940.343	     2.21148e+07	
       940.521	     2.27979e+07	
       940.580	     2.30132e+07	
       940.660	     2.33007e+07	
       940.700	     2.34412e+07	
       940.740	     2.35780e+07	
       940.901	     2.40589e+07	
       941.061	     2.45082e+07	
       941.221	     2.49268e+07	
       941.381	     2.53073e+07	
       941.541	     2.56354e+07	
       941.701	     2.59415e+07	
       942.022	     2.64888e+07	
       942.342	     2.69410e+07	
       942.662	     2.72803e+07	
       942.917	     2.74726e+07	
       942.982	     2.75100e+07	
       943.048	     2.75424e+07	
       943.178	     2.75932e+07	
       943.438	     2.75883e+07	
       943.698	     2.74652e+07	
       943.828	     2.73582e+07	
       943.958	     2.72203e+07	
       944.088	     2.70456e+07	
       944.219	     2.68289e+07	
       944.349	     2.65755e+07	
       944.479	     2.62856e+07	
       944.609	     2.59591e+07	
       944.691	     2.57345e+07	
       944.739	     2.55964e+07	
       944.845	     2.53008e+07	
       944.999	     2.48395e+07	
       945.153	     2.43382e+07	
       945.308	     2.37978e+07	
       945.462	     2.32488e+07	
       945.616	     2.26733e+07	
       945.770	     2.20597e+07	
       945.924	     2.14241e+07	
       946.078	     2.07967e+07	
       946.232	     2.01440e+07	
       946.541	     1.88527e+07	
       946.695	     1.81921e+07	
       946.849	     1.75209e+07	
       947.003	     1.68209e+07	
       947.108	     1.63292e+07	
       947.157	     1.60956e+07	
       947.208	     1.58485e+07	
       947.308	     1.53543e+07	
       947.509	     1.43082e+07	
       947.709	     1.31857e+07	
       947.735	     1.30322e+07	
       947.909	     1.19443e+07	
       948.083	     1.07535e+07	
       948.257	     9.45440e+06	
       948.317	     8.98549e+06	
       948.431	     8.04980e+06	
       948.546	     7.04596e+06	
       948.660	     5.96827e+06	
       948.727	     5.28991e+06	
       948.761	     4.92957e+06	
       948.771	     4.81807e+06	
       948.774	     4.78436e+06	
       948.777	     4.75065e+06	
       948.827	     4.13757e+06	
       948.835	     4.03575e+06	
       948.893	     3.25268e+06	
       948.922	     2.84217e+06	
       948.951	     2.49745e+06	
       948.966	     2.43117e+06	
       948.980	     2.40915e+06	
       948.994	     2.40604e+06	
       949.009	     2.40573e+06	
       949.023	     2.40603e+06	
       949.037	     2.40641e+06	
       949.052	     2.40743e+06	
       949.066	     2.41123e+06	
       949.095	     2.50104e+06	
       949.153	     3.26088e+06	
       949.230	     4.29493e+06	
       949.258	     4.64736e+06	
       949.269	     4.77236e+06	
       949.280	     4.89711e+06	
       949.330	     5.43420e+06	
       949.360	     5.74343e+06	
       949.430	     6.43967e+06	
       949.500	     7.10565e+06	
       949.640	     8.35918e+06	
       949.781	     9.51507e+06	
       949.795	     9.62647e+06	
       949.879	     1.02882e+07	
       949.921	     1.06091e+07	
       949.963	     1.09251e+07	
       950.131	     1.21273e+07	
       950.299	     1.32389e+07	
       950.467	     1.42635e+07	
       950.635	     1.52344e+07	
       950.719	     1.57045e+07	
       950.804	     1.61610e+07	
       950.888	     1.66096e+07	
       951.056	     1.74852e+07	
       951.224	     1.83392e+07	
       951.392	     1.91741e+07	
       951.560	     2.00064e+07	
       951.728	     2.08338e+07	
       951.896	     2.17202e+07	
       952.065	     2.26011e+07	
       952.233	     2.35006e+07	
       952.401	     2.44259e+07	
       952.688	     2.59795e+07	
       952.737	     2.62599e+07	
       952.788	     2.65529e+07	
       952.888	     2.71282e+07	
       953.089	     2.82839e+07	
       953.489	     3.06841e+07	
       953.889	     3.31444e+07	
       954.290	     3.54987e+07	
       954.490	     3.66313e+07	
       954.690	     3.77425e+07	
       954.890	     3.87836e+07	
       955.090	     3.97025e+07	
       955.290	     4.05985e+07	
       955.491	     4.14684e+07	
       955.768	     4.26364e+07	
       955.891	     4.31221e+07	
       956.014	     4.35962e+07	
       956.260	     4.45450e+07	
       956.753	     4.63592e+07	
       957.245	     4.80529e+07	
       957.738	     4.96208e+07	
       958.156	     5.08438e+07	
       958.230	     5.10499e+07	
       958.722	     5.23436e+07	
       959.289	     5.36216e+07	
       959.572	     5.41805e+07	
       959.855	     5.46725e+07	
       960.139	     5.50979e+07	
       960.380	     5.53995e+07	
       960.414	     5.54375e+07	
       960.422	     5.54463e+07	
       960.430	     5.54551e+07	
       960.480	     5.55223e+07	
       960.580	     5.56492e+07	
       960.780	     5.58698e+07	
       961.180	     5.61673e+07	
       961.581	     5.62713e+07	
       961.981	     5.61707e+07	
       962.381	     5.58563e+07	
       962.782	     5.53282e+07	
       963.182	     5.45622e+07	
       963.582	     5.35846e+07	
       963.735	     5.31589e+07	
       963.983	     5.24043e+07	
       964.231	     5.15633e+07	
       964.479	     5.06557e+07	
       964.727	     4.96830e+07	
       964.976	     4.86344e+07	
       965.224	     4.75323e+07	
       965.472	     4.63687e+07	
       965.968	     4.39022e+07	
       966.465	     4.13072e+07	
       966.883	     3.90491e+07	
       966.961	     3.86215e+07	
       967.458	     3.59068e+07	
       968.032	     3.27640e+07	
       969.065	     2.71060e+07	
       969.132	     2.67351e+07	
       969.181	     2.64631e+07	
       969.297	     2.58168e+07	
       969.331	     2.56281e+07	
       969.529	     2.44932e+07	
       969.728	     2.33293e+07	
       969.927	     2.21267e+07	
       970.125	     2.08682e+07	
       970.324	     1.95388e+07	
       970.522	     1.81183e+07	
       970.568	     1.77754e+07	
       970.721	     1.65597e+07	
       970.874	     1.52461e+07	
       971.027	     1.38156e+07	
       971.181	     1.22170e+07	
       971.292	     1.09259e+07	
       971.320	     1.05819e+07	
       971.334	     1.04067e+07	
       971.348	     1.02293e+07	
       971.404	     9.49509e+06	
       971.447	     8.91047e+06	
       971.467	     8.63118e+06	
       971.516	     7.92263e+06	
       971.585	     6.87321e+06	
       971.644	     5.91373e+06	
       971.703	     4.88656e+06	
       971.732	     4.36235e+06	
       971.762	     3.79903e+06	
       971.778	     3.50360e+06	
       971.792	     3.26349e+06	
       971.806	     3.07865e+06	
       971.821	     3.00352e+06	
       971.827	     3.00257e+06	
       971.833	     3.00274e+06	
       971.836	     3.00282e+06	
       971.839	     3.00291e+06	
       971.851	     3.00325e+06	
       971.866	     3.03197e+06	
       971.880	     3.17747e+06	
       971.910	     3.69247e+06	
       971.969	     4.79017e+06	
       972.037	     5.98417e+06	
       972.087	     6.80576e+06	
       972.137	     7.58660e+06	
       972.150	     7.78348e+06	
       972.237	     9.04339e+06	
       972.324	     1.02122e+07	
       972.499	     1.22905e+07	
       972.548	     1.28163e+07	
       972.673	     1.40664e+07	
       972.798	     1.51943e+07	
       972.923	     1.62261e+07	
       973.048	     1.71704e+07	
       973.173	     1.80463e+07	
       973.298	     1.88643e+07	
       973.351	     1.91984e+07	
       973.423	     1.96410e+07	
       973.548	     2.03799e+07	
       973.746	     2.14893e+07	
       973.943	     2.25497e+07	
       974.140	     2.35468e+07	
       974.337	     2.45245e+07	
       974.731	     2.64462e+07	
       975.126	     2.82834e+07	
       975.400	     2.95427e+07	
       975.520	     3.00567e+07	
       975.640	     3.05745e+07	
       975.880	     3.16346e+07	
       976.120	     3.26829e+07	
       976.361	     3.37489e+07	
       976.601	     3.48698e+07	
       976.841	     3.60715e+07	
       977.081	     3.73765e+07	
       977.321	     3.87870e+07	
       977.802	     4.14637e+07	
       978.042	     4.29198e+07	
       978.282	     4.43404e+07	
       978.522	     4.58848e+07	
       978.762	     4.76030e+07	
       978.883	     4.85433e+07	
       979.003	     4.95429e+07	
       979.123	     5.06114e+07	
       979.181	     5.11568e+07	
       979.243	     5.17590e+07	
       979.305	     5.23842e+07	
       979.429	     5.34866e+07	
       979.553	     5.46596e+07	
       979.677	     5.59138e+07	
       979.801	     5.72584e+07	
       979.925	     5.87079e+07	
       980.049	     5.99636e+07	
       980.173	     6.10656e+07	
       980.298	     6.22161e+07	
       980.422	     6.34178e+07	
       980.546	     6.46709e+07	
       980.794	     6.69401e+07	
       981.042	     6.89979e+07	
       981.290	     7.11495e+07	
       981.636	     7.40505e+07	
       981.787	     7.53539e+07	
       982.207	     7.89149e+07	
       982.779	     8.36879e+07	
       983.066	     8.61268e+07	
       983.351	     8.86234e+07	
       983.637	     9.12831e+07	
       983.923	     9.40492e+07	
       984.496	     9.94345e+07	
