# Koester WD models
# teff = 18250 K (value for the effective temperature for the model. Temperatures are given in K)
# logg = 8.25 log(cm/s2) (value for Log(G) for the model.)
#
#   WAVELENGTH	#           FLUX	
#   (ANGSTROM)	#  (ERG/CM2/S/A)	
##############	################	
       899.230	     3.51893e+06	
       902.505	     3.62625e+06	
       902.689	     3.63237e+06	
       903.370	     3.65499e+06	
       904.235	     3.68386e+06	
       905.965	     3.74214e+06	
       908.450	     3.82690e+06	
       909.241	     3.85417e+06	
       910.032	     3.88153e+06	
       911.193	     3.92203e+06	
       911.613	     3.93660e+06	
       911.824	     3.94386e+06	
       911.929	     3.94744e+06	
       912.034	     3.95099e+06	
       912.139	     4.02127e+06	
       912.244	     4.09101e+06	
       912.349	     4.16000e+06	
       912.454	     4.22827e+06	
       912.559	     4.29588e+06	
       912.664	     4.36251e+06	
       912.770	     4.42764e+06	
       912.875	     4.49025e+06	
       912.886	     4.49659e+06	
       912.980	     4.54752e+06	
       913.085	     4.59050e+06	
       913.284	     4.63039e+06	
       913.433	     4.64089e+06	
       913.445	     4.63991e+06	
       913.483	     4.64111e+06	
       913.533	     4.64899e+06	
       913.633	     4.67017e+06	
       913.822	     4.60576e+06	
       913.855	     4.61886e+06	
       914.010	     4.65901e+06	
       914.165	     4.43791e+06	
       914.320	     4.69253e+06	
       914.375	     4.69520e+06	
       914.475	     4.39528e+06	
       914.575	     4.12793e+06	
       914.676	     4.43307e+06	
       914.776	     4.76909e+06	
       914.876	     4.65176e+06	
       914.881	     4.63171e+06	
       914.976	     4.09346e+06	
       915.071	     3.70177e+06	
       915.261	     4.73793e+06	
       915.451	     4.74311e+06	
       915.592	     3.67953e+06	
       915.642	     3.32921e+06	
       915.692	     3.26622e+06	
       915.792	     3.99186e+06	
       915.892	     4.88251e+06	
       915.992	     5.37275e+06	
       916.092	     5.37894e+06	
       916.192	     4.89215e+06	
       916.292	     3.97276e+06	
       916.342	     3.42405e+06	
       916.392	     2.98296e+06	
       916.442	     2.88385e+06	
       916.543	     3.73130e+06	
       916.643	     4.86928e+06	
       916.743	     5.70846e+06	
       916.843	     6.16057e+06	
       916.943	     6.18730e+06	
       917.043	     5.76375e+06	
       917.143	     4.93469e+06	
       917.243	     3.79599e+06	
       917.293	     3.15670e+06	
       917.343	     2.67031e+06	
       917.393	     2.57905e+06	
       917.494	     3.54425e+06	
       917.594	     4.82910e+06	
       917.694	     5.90161e+06	
       917.794	     6.71754e+06	
       917.894	     7.22202e+06	
       917.994	     7.37690e+06	
       918.094	     7.17738e+06	
       918.194	     6.59866e+06	
       918.294	     5.74651e+06	
       918.394	     4.64192e+06	
       918.495	     3.25808e+06	
       918.545	     2.63909e+06	
       918.595	     2.34262e+06	
       918.645	     2.50747e+06	
       918.745	     3.80849e+06	
       918.845	     5.11586e+06	
       919.045	     7.27784e+06	
       919.195	     8.38004e+06	
       919.245	     8.62056e+06	
       919.295	     8.79065e+06	
       919.396	     8.92897e+06	
       919.496	     8.84173e+06	
       919.596	     8.48425e+06	
       919.696	     7.87315e+06	
       919.796	     7.03428e+06	
       919.896	     6.00431e+06	
       919.996	     4.80525e+06	
       920.096	     3.36383e+06	
       920.146	     2.63247e+06	
       920.196	     2.22996e+06	
       920.246	     2.27964e+06	
       920.346	     3.56847e+06	
       920.447	     4.97650e+06	
       920.547	     6.21193e+06	
       920.647	     7.32739e+06	
       920.747	     8.30741e+06	
       920.847	     9.15985e+06	
       920.947	     9.84233e+06	
       921.047	     1.03472e+07	
       921.147	     1.07012e+07	
       921.247	     1.08784e+07	
       921.348	     1.09102e+07	
       921.448	     1.07815e+07	
       921.548	     1.04783e+07	
       921.648	     1.00051e+07	
       921.748	     9.37169e+06	
       921.848	     8.56939e+06	
       921.948	     7.65631e+06	
       922.048	     6.57089e+06	
       922.148	     5.35704e+06	
       922.248	     3.96749e+06	
       922.292	     3.21938e+06	
       922.349	     2.40018e+06	
       922.405	     2.13887e+06	
       922.517	     3.22676e+06	
       922.629	     4.95944e+06	
       922.672	     5.53410e+06	
       922.741	     6.40043e+06	
       922.810	     7.21401e+06	
       922.948	     8.65861e+06	
       923.086	     9.95495e+06	
       923.224	     1.10603e+07	
       923.363	     1.19990e+07	
       923.501	     1.27202e+07	
       923.639	     1.32355e+07	
       923.777	     1.35487e+07	
       923.915	     1.37000e+07	
       924.053	     1.36878e+07	
       924.191	     1.34812e+07	
       924.330	     1.30736e+07	
       924.468	     1.24384e+07	
       924.606	     1.15792e+07	
       924.744	     1.05660e+07	
       924.882	     9.37492e+06	
       925.020	     8.02262e+06	
       925.158	     6.42632e+06	
       925.297	     4.50269e+06	
       925.385	     3.02213e+06	
       925.435	     2.28521e+06	
       925.485	     2.13963e+06	
       925.585	     3.06211e+06	
       925.685	     4.73765e+06	
       925.785	     6.15931e+06	
       925.885	     7.40618e+06	
       925.985	     8.50775e+06	
       926.085	     9.52565e+06	
       926.185	     1.04853e+07	
       926.202	     1.06391e+07	
       926.286	     1.13579e+07	
       926.369	     1.20652e+07	
       926.535	     1.33793e+07	
       926.701	     1.44887e+07	
       926.867	     1.54081e+07	
       927.033	     1.61314e+07	
       927.199	     1.66948e+07	
       927.366	     1.71212e+07	
       927.532	     1.74130e+07	
       927.698	     1.75768e+07	
       927.864	     1.76176e+07	
       927.878	     1.76154e+07	
       928.030	     1.75296e+07	
       928.182	     1.72485e+07	
       928.335	     1.68003e+07	
       928.487	     1.61840e+07	
       928.639	     1.54051e+07	
       928.791	     1.45073e+07	
       928.797	     1.44732e+07	
       928.943	     1.35725e+07	
       929.089	     1.25446e+07	
       929.185	     1.17819e+07	
       929.235	     1.13625e+07	
       929.285	     1.09372e+07	
       929.386	     1.00198e+07	
       929.429	     9.59449e+06	
       929.486	     9.02545e+06	
       929.543	     8.42204e+06	
       929.545	     8.40024e+06	
       929.657	     7.08354e+06	
       929.769	     5.54435e+06	
       929.831	     4.56021e+06	
       929.881	     3.67428e+06	
       929.931	     2.69311e+06	
       929.981	     2.22911e+06	
       930.025	     2.21248e+06	
       930.031	     2.21760e+06	
       930.081	     2.57581e+06	
       930.137	     3.64704e+06	
       930.199	     4.74528e+06	
       930.249	     5.53882e+06	
       930.299	     6.27395e+06	
       930.322	     6.57498e+06	
       930.400	     7.58572e+06	
       930.478	     8.49678e+06	
       930.634	     1.01352e+07	
       930.649	     1.02852e+07	
       930.790	     1.15980e+07	
       930.931	     1.28253e+07	
       931.072	     1.39376e+07	
       931.213	     1.49676e+07	
       931.355	     1.60200e+07	
       931.436	     1.66157e+07	
       931.536	     1.73401e+07	
       931.637	     1.80246e+07	
       931.737	     1.86635e+07	
       931.838	     1.92746e+07	
       931.939	     1.98427e+07	
       932.039	     2.03401e+07	
       932.140	     2.07728e+07	
       932.240	     2.11794e+07	
       932.341	     2.15577e+07	
       932.442	     2.19049e+07	
       932.543	     2.22288e+07	
       932.643	     2.25294e+07	
       932.744	     2.27946e+07	
       932.844	     2.30166e+07	
       932.945	     2.32131e+07	
       933.045	     2.33870e+07	
       933.089	     2.34561e+07	
       933.246	     2.36653e+07	
       933.265	     2.36865e+07	
       933.403	     2.38141e+07	
       933.432	     2.38328e+07	
       933.542	     2.38847e+07	
       933.652	     2.39016e+07	
       933.762	     2.38817e+07	
       933.872	     2.38235e+07	
       933.982	     2.37103e+07	
       934.092	     2.35340e+07	
       934.202	     2.33070e+07	
       934.312	     2.30283e+07	
       934.413	     2.27369e+07	
       934.422	     2.27104e+07	
       934.533	     2.23596e+07	
       934.652	     2.19210e+07	
       934.771	     2.14219e+07	
       934.890	     2.08690e+07	
       935.009	     2.02562e+07	
       935.026	     2.01638e+07	
       935.128	     1.96280e+07	
       935.230	     1.91300e+07	
       935.332	     1.86033e+07	
       935.434	     1.80544e+07	
       935.537	     1.74775e+07	
       935.639	     1.68683e+07	
       935.741	     1.62350e+07	
       935.746	     1.62031e+07	
       935.843	     1.55633e+07	
       935.945	     1.48429e+07	
       936.144	     1.33022e+07	
       936.343	     1.16033e+07	
       936.484	     1.02528e+07	
       936.542	     9.64532e+06	
       936.601	     8.99884e+06	
       936.605	     8.95282e+06	
       936.717	     7.57454e+06	
       936.829	     5.97405e+06	
       936.891	     4.91983e+06	
       936.941	     3.94901e+06	
       936.991	     2.82836e+06	
       937.041	     2.36846e+06	
       937.091	     2.36233e+06	
       937.141	     2.63147e+06	
       937.168	     3.17288e+06	
       937.191	     3.70453e+06	
       937.241	     4.71544e+06	
       937.314	     5.98467e+06	
       937.377	     6.93381e+06	
       937.460	     8.05797e+06	
       937.543	     9.07377e+06	
       937.710	     1.08718e+07	
       937.752	     1.12863e+07	
       937.876	     1.24349e+07	
       938.000	     1.35212e+07	
       938.124	     1.45557e+07	
       938.248	     1.55296e+07	
       938.372	     1.64430e+07	
       938.496	     1.73049e+07	
       938.620	     1.81425e+07	
       938.745	     1.89507e+07	
       938.819	     1.94254e+07	
       938.869	     1.97448e+07	
       938.919	     2.00611e+07	
       939.019	     2.06887e+07	
       939.167	     2.17357e+07	
       939.219	     2.21102e+07	
       939.259	     2.23949e+07	
       939.271	     2.24799e+07	
       939.375	     2.32040e+07	
       939.583	     2.46162e+07	
       939.629	     2.49195e+07	
       939.815	     2.61346e+07	
       940.000	     2.73864e+07	
       940.185	     2.85971e+07	
       940.370	     2.96984e+07	
       940.555	     3.07503e+07	
       940.690	     3.14923e+07	
       940.740	     3.17590e+07	
       940.790	     3.20087e+07	
       940.891	     3.24966e+07	
       941.091	     3.34265e+07	
       941.291	     3.42889e+07	
       941.491	     3.50127e+07	
       941.691	     3.56564e+07	
       941.891	     3.62449e+07	
       942.092	     3.67758e+07	
       942.292	     3.72442e+07	
       942.337	     3.73347e+07	
       942.492	     3.76181e+07	
       942.515	     3.76554e+07	
       942.692	     3.79156e+07	
       942.870	     3.81103e+07	
       943.048	     3.82360e+07	
       943.225	     3.82951e+07	
       943.403	     3.82417e+07	
       943.580	     3.80956e+07	
       943.758	     3.78527e+07	
       943.935	     3.75116e+07	
       944.114	     3.70545e+07	
       944.291	     3.64673e+07	
       944.469	     3.57724e+07	
       944.646	     3.49744e+07	
       944.824	     3.41252e+07	
       945.051	     3.30034e+07	
       945.179	     3.23194e+07	
       945.308	     3.16047e+07	
       945.564	     3.01274e+07	
       945.820	     2.85475e+07	
       946.076	     2.70499e+07	
       946.333	     2.55766e+07	
       946.589	     2.41893e+07	
       947.044	     2.16366e+07	
       947.101	     2.13095e+07	
       947.158	     2.09793e+07	
       947.272	     2.03066e+07	
       947.386	     1.96154e+07	
       947.501	     1.89002e+07	
       947.615	     1.81555e+07	
       947.729	     1.73758e+07	
       947.831	     1.66353e+07	
       947.843	     1.65450e+07	
       947.957	     1.56552e+07	
       948.083	     1.46055e+07	
       948.209	     1.34846e+07	
       948.335	     1.22831e+07	
       948.377	     1.18532e+07	
       948.461	     1.09454e+07	
       948.546	     9.95822e+06	
       948.651	     8.58918e+06	
       948.661	     8.44916e+06	
       948.714	     7.67972e+06	
       948.777	     6.67573e+06	
       948.835	     5.60215e+06	
       948.893	     4.34020e+06	
       948.901	     4.14938e+06	
       948.951	     2.87665e+06	
       949.001	     2.65746e+06	
       949.049	     2.65922e+06	
       949.051	     2.65951e+06	
       949.101	     2.97505e+06	
       949.153	     4.35079e+06	
       949.207	     5.54186e+06	
       949.257	     6.49515e+06	
       949.307	     7.33373e+06	
       949.314	     7.44344e+06	
       949.407	     8.81308e+06	
       949.500	     1.00391e+07	
       949.687	     1.21722e+07	
       949.783	     1.31440e+07	
       949.873	     1.40064e+07	
       949.963	     1.48294e+07	
       950.143	     1.63752e+07	
       950.323	     1.77823e+07	
       950.503	     1.90729e+07	
       950.683	     2.02921e+07	
       950.814	     2.11415e+07	
       950.864	     2.14632e+07	
       950.914	     2.17826e+07	
       951.014	     2.24164e+07	
       951.214	     2.36817e+07	
       951.414	     2.49435e+07	
       951.614	     2.62139e+07	
       951.814	     2.75426e+07	
       952.015	     2.89599e+07	
       952.092	     2.95160e+07	
       952.215	     3.04633e+07	
       952.415	     3.21306e+07	
       952.577	     3.34938e+07	
       952.738	     3.48896e+07	
       952.899	     3.63441e+07	
       953.061	     3.78342e+07	
       953.223	     3.93582e+07	
       953.385	     4.10088e+07	
       953.546	     4.27656e+07	
       953.708	     4.45622e+07	
       954.031	     4.82414e+07	
       954.355	     5.19246e+07	
       954.678	     5.56665e+07	
       955.001	     5.91973e+07	
       955.324	     6.24709e+07	
       955.648	     6.56621e+07	
       955.921	     6.81785e+07	
       955.971	     6.86111e+07	
       956.021	     6.90434e+07	
       956.121	     6.99161e+07	
       956.321	     7.16418e+07	
       956.722	     7.50106e+07	
       957.122	     7.82417e+07	
       957.522	     8.13164e+07	
       957.923	     8.42094e+07	
       958.323	     8.69015e+07	
       958.723	     8.93708e+07	
       958.959	     9.06934e+07	
       959.124	     9.15592e+07	
       959.289	     9.23716e+07	
       959.619	     9.39189e+07	
       959.949	     9.52223e+07	
       960.130	     9.58255e+07	
       960.280	     9.62606e+07	
       960.430	     9.66332e+07	
       960.730	     9.74996e+07	
       961.030	     9.80595e+07	
       961.331	     9.83051e+07	
       961.631	     9.82169e+07	
       961.931	     9.77915e+07	
       962.231	     9.70249e+07	
       962.532	     9.59147e+07	
       962.832	     9.44737e+07	
       963.132	     9.26760e+07	
       963.234	     9.19981e+07	
       963.432	     9.05910e+07	
       963.483	     9.02039e+07	
       963.733	     8.82153e+07	
       963.982	     8.60671e+07	
       964.231	     8.37319e+07	
       964.480	     8.12821e+07	
       964.729	     7.87318e+07	
       964.979	     7.60507e+07	
       965.228	     7.33166e+07	
       965.726	     6.76847e+07	
       966.225	     6.20662e+07	
       966.411	     6.00035e+07	
       966.723	     5.66294e+07	
       966.816	     5.56222e+07	
       967.221	     5.14203e+07	
       967.425	     4.94094e+07	
       967.627	     4.74494e+07	
       967.830	     4.55594e+07	
       967.982	     4.41786e+07	
       968.032	     4.37250e+07	
       968.082	     4.32729e+07	
       968.182	     4.23826e+07	
       968.382	     4.06491e+07	
       968.582	     3.89715e+07	
       968.783	     3.73325e+07	
       969.069	     3.50539e+07	
       969.124	     3.46235e+07	
       969.183	     3.41623e+07	
       969.297	     3.32770e+07	
       969.525	     3.15092e+07	
       969.927	     2.84008e+07	
       970.128	     2.68117e+07	
       970.328	     2.51773e+07	
       970.428	     2.43328e+07	
       970.528	     2.34641e+07	
       970.629	     2.25627e+07	
       970.729	     2.16051e+07	
       970.779	     2.11096e+07	
       970.829	     2.06054e+07	
       970.879	     2.00873e+07	
       970.979	     1.90004e+07	
       971.079	     1.78325e+07	
       971.180	     1.65622e+07	
       971.212	     1.61257e+07	
       971.280	     1.51627e+07	
       971.348	     1.41214e+07	
       971.382	     1.35661e+07	
       971.484	     1.17489e+07	
       971.585	     9.63398e+06	
       971.636	     8.42421e+06	
       971.686	     7.15074e+06	
       971.736	     5.76215e+06	
       971.786	     4.24238e+06	
       971.836	     3.30895e+06	
       971.886	     4.09020e+06	
       971.936	     5.62433e+06	
       971.986	     7.03506e+06	
       972.036	     8.32770e+06	
       972.086	     9.52368e+06	
       972.136	     1.06286e+07	
       972.149	     1.08937e+07	
       972.236	     1.26006e+07	
       972.324	     1.41053e+07	
       972.500	     1.66675e+07	
       972.552	     1.73392e+07	
       972.675	     1.87935e+07	
       972.798	     2.01088e+07	
       972.921	     2.13022e+07	
       973.044	     2.24015e+07	
       973.167	     2.34234e+07	
       973.290	     2.43797e+07	
       973.413	     2.53000e+07	
       973.536	     2.61839e+07	
       973.573	     2.64441e+07	
       973.659	     2.70403e+07	
       973.746	     2.76282e+07	
       973.918	     2.87875e+07	
       974.262	     3.10101e+07	
       974.606	     3.32688e+07	
       974.949	     3.54343e+07	
       975.295	     3.77390e+07	
       975.640	     3.98718e+07	
       975.985	     4.21350e+07	
       976.157	     4.32607e+07	
       976.331	     4.44325e+07	
       976.503	     4.56621e+07	
       976.676	     4.69671e+07	
       976.848	     4.83626e+07	
       977.021	     4.98696e+07	
       977.193	     5.15146e+07	
       977.366	     5.31740e+07	
       977.538	     5.47558e+07	
       977.712	     5.64604e+07	
       977.884	     5.83102e+07	
       978.057	     6.01697e+07	
       978.229	     6.20273e+07	
       978.402	     6.40326e+07	
       978.574	     6.62147e+07	
       978.747	     6.86331e+07	
       978.881	     7.06849e+07	
       978.920	     7.13273e+07	
       978.987	     7.24486e+07	
       979.093	     7.43461e+07	
       979.199	     7.63935e+07	
       979.305	     7.86099e+07	
       979.411	     8.05998e+07	
       979.517	     8.27288e+07	
       979.623	     8.50146e+07	
       979.729	     8.74748e+07	
       979.835	     9.01301e+07	
       979.941	     9.30128e+07	
       980.047	     9.54271e+07	
       980.153	     9.76240e+07	
       980.366	     1.02337e+08	
       980.578	     1.07551e+08	
       980.790	     1.12298e+08	
       981.002	     1.16738e+08	
       981.214	     1.21433e+08	
       981.426	     1.26197e+08	
       981.851	     1.35937e+08	
       982.275	     1.45803e+08	
       982.699	     1.55904e+08	
       982.912	     1.61134e+08	
       983.124	     1.66523e+08	
       983.173	     1.67795e+08	
       983.336	     1.72097e+08	
       983.361	     1.72756e+08	
       983.548	     1.78081e+08	
       983.736	     1.83598e+08	
       983.923	     1.89334e+08	
       984.299	     2.00839e+08	
       985.049	     2.23892e+08	
       985.800	     2.47625e+08	
       986.482	     2.70061e+08	
       986.550	     2.72306e+08	
       986.618	     2.74562e+08	
       986.754	     2.78979e+08	
       986.890	     2.81583e+08	
       987.027	     2.84059e+08	
       987.299	     2.88854e+08	
       987.571	     2.93400e+08	
       987.843	     2.97543e+08	
       987.979	     2.99542e+08	
       988.115	     3.01485e+08	
       988.251	     3.05015e+08	
       988.388	     3.08741e+08	
       988.660	     3.16173e+08	
       988.932	     3.22497e+08	
       989.096	     3.25394e+08	
       989.204	     3.27266e+08	
       989.312	     3.29113e+08	
       989.420	     3.30860e+08	
       989.528	     3.32139e+08	
       989.636	     3.31985e+08	
       989.745	     3.31787e+08	
       989.961	     3.31265e+08	
       990.393	     3.31457e+08	
       990.609	     3.32437e+08	
