# Koester WD models
# teff = 18500 K (value for the effective temperature for the model. Temperatures are given in K)
# logg = 9 log(cm/s2) (value for Log(G) for the model.)
#
#   WAVELENGTH	#           FLUX	
#   (ANGSTROM)	#  (ERG/CM2/S/A)	
##############	################	
       899.230	     4.37731e+06	
       899.280	     4.37925e+06	
       899.380	     4.38321e+06	
       899.580	     4.39110e+06	
       899.980	     4.40693e+06	
       900.531	     4.42877e+06	
       900.781	     4.43872e+06	
       902.383	     4.50275e+06	
       904.235	     4.57758e+06	
       906.638	     4.67595e+06	
       907.939	     4.72982e+06	
       908.450	     4.75106e+06	
       909.241	     4.78408e+06	
       910.032	     4.81719e+06	
       911.193	     4.86595e+06	
       911.613	     4.88351e+06	
       911.824	     4.89221e+06	
       911.929	     4.89655e+06	
       912.034	     4.90085e+06	
       912.139	     4.94235e+06	
       912.244	     4.98332e+06	
       912.349	     5.02382e+06	
       912.454	     5.06384e+06	
       912.559	     5.10339e+06	
       912.664	     5.14238e+06	
       912.770	     5.18061e+06	
       912.875	     5.21765e+06	
       912.886	     5.22145e+06	
       913.037	     5.27115e+06	
       913.085	     5.28604e+06	
       913.284	     5.34316e+06	
       913.531	     5.40103e+06	
       913.649	     5.41677e+06	
       913.736	     5.43263e+06	
       913.779	     5.44011e+06	
       913.822	     5.44699e+06	
       913.994	     5.44394e+06	
       914.165	     5.45164e+06	
       914.336	     5.44862e+06	
       914.439	     5.41410e+06	
       914.507	     5.38290e+06	
       914.575	     5.37228e+06	
       914.712	     5.42010e+06	
       914.848	     5.39908e+06	
       914.897	     5.33782e+06	
       914.984	     5.22010e+06	
       915.071	     5.15648e+06	
       915.245	     5.36119e+06	
       915.419	     5.36308e+06	
       915.544	     5.03871e+06	
       915.594	     4.89334e+06	
       915.609	     4.84990e+06	
       915.643	     4.79033e+06	
       915.677	     4.78116e+06	
       915.745	     4.90280e+06	
       915.881	     5.41372e+06	
       916.017	     5.70293e+06	
       916.153	     5.52895e+06	
       916.289	     4.91207e+06	
       916.379	     4.49147e+06	
       916.421	     4.41570e+06	
       916.425	     4.41494e+06	
       916.429	     4.41545e+06	
       916.479	     4.52103e+06	
       916.580	     5.07785e+06	
       916.680	     5.70080e+06	
       916.780	     6.13151e+06	
       916.880	     6.30945e+06	
       916.980	     6.18030e+06	
       917.080	     5.76237e+06	
       917.180	     5.08709e+06	
       917.182	     5.07248e+06	
       917.280	     4.29182e+06	
       917.378	     3.87760e+06	
       917.575	     5.18303e+06	
       917.771	     6.63250e+06	
       917.967	     7.22617e+06	
       918.163	     6.72455e+06	
       918.359	     5.26748e+06	
       918.510	     3.84248e+06	
       918.556	     3.51082e+06	
       918.602	     3.38786e+06	
       918.694	     3.85489e+06	
       918.878	     5.70783e+06	
       919.062	     7.30103e+06	
       919.201	     8.13701e+06	
       919.241	     8.30144e+06	
       919.246	     8.31906e+06	
       919.251	     8.33609e+06	
       919.301	     8.47140e+06	
       919.402	     8.56420e+06	
       919.502	     8.45977e+06	
       919.602	     8.10543e+06	
       919.702	     7.50237e+06	
       919.802	     6.78066e+06	
       919.902	     5.87569e+06	
       920.002	     4.86893e+06	
       920.102	     3.76809e+06	
       920.165	     3.20040e+06	
       920.189	     3.08102e+06	
       920.202	     3.04963e+06	
       920.215	     3.03853e+06	
       920.265	     3.20386e+06	
       920.366	     4.20559e+06	
       920.466	     5.29691e+06	
       920.566	     6.32258e+06	
       920.666	     7.29811e+06	
       920.766	     8.17486e+06	
       920.866	     8.98954e+06	
       920.966	     9.62395e+06	
       921.066	     1.01154e+07	
       921.166	     1.04465e+07	
       921.266	     1.05948e+07	
       921.367	     1.05883e+07	
       921.467	     1.04140e+07	
       921.567	     1.00405e+07	
       921.667	     9.50938e+06	
       921.767	     8.84151e+06	
       921.867	     8.00930e+06	
       921.967	     7.13660e+06	
       922.067	     6.15561e+06	
       922.167	     5.07358e+06	
       922.267	     3.92379e+06	
       922.331	     3.18429e+06	
       922.368	     2.91942e+06	
       922.405	     2.83533e+06	
       922.479	     3.18912e+06	
       922.627	     4.93538e+06	
       922.670	     5.43693e+06	
       922.740	     6.19180e+06	
       922.775	     6.55732e+06	
       922.810	     6.92718e+06	
       922.950	     8.29239e+06	
       923.090	     9.62358e+06	
       923.230	     1.07950e+07	
       923.371	     1.18190e+07	
       923.511	     1.25873e+07	
       923.651	     1.31572e+07	
       923.791	     1.34887e+07	
       923.931	     1.36287e+07	
       924.071	     1.35709e+07	
       924.211	     1.32883e+07	
       924.352	     1.27725e+07	
       924.492	     1.20381e+07	
       924.632	     1.10661e+07	
       924.772	     9.92907e+06	
       924.912	     8.65267e+06	
       925.052	     7.28388e+06	
       925.192	     5.78782e+06	
       925.333	     4.05482e+06	
       925.434	     2.89971e+06	
       925.462	     2.78177e+06	
       925.473	     2.76325e+06	
       925.484	     2.75786e+06	
       925.534	     2.90267e+06	
       925.634	     4.05297e+06	
       925.734	     5.33637e+06	
       925.834	     6.48026e+06	
       925.934	     7.55025e+06	
       926.034	     8.57127e+06	
       926.134	     9.58578e+06	
       926.232	     1.05181e+07	
       926.301	     1.11519e+07	
       926.335	     1.14758e+07	
       926.369	     1.17897e+07	
       926.505	     1.29486e+07	
       926.641	     1.39972e+07	
       926.777	     1.49341e+07	
       926.913	     1.57377e+07	
       927.049	     1.64025e+07	
       927.185	     1.69475e+07	
       927.322	     1.73671e+07	
       927.458	     1.76803e+07	
       927.594	     1.78820e+07	
       927.730	     1.79921e+07	
       927.866	     1.80037e+07	
       928.002	     1.79114e+07	
       928.006	     1.79070e+07	
       928.094	     1.77642e+07	
       928.138	     1.76682e+07	
       928.182	     1.75571e+07	
       928.359	     1.69622e+07	
       928.535	     1.61383e+07	
       928.711	     1.50630e+07	
       928.887	     1.38405e+07	
       928.985	     1.31121e+07	
       929.037	     1.27090e+07	
       929.063	     1.24992e+07	
       929.089	     1.22835e+07	
       929.125	     1.19738e+07	
       929.193	     1.13625e+07	
       929.261	     1.07442e+07	
       929.398	     9.45293e+06	
       929.493	     8.48582e+06	
       929.525	     8.15535e+06	
       929.534	     8.06293e+06	
       929.543	     7.97025e+06	
       929.593	     7.44174e+06	
       929.617	     7.18046e+06	
       929.655	     6.75675e+06	
       929.693	     6.31438e+06	
       929.769	     5.39886e+06	
       929.827	     4.61893e+06	
       929.883	     3.82313e+06	
       929.910	     3.43342e+06	
       929.939	     3.06581e+06	
       929.954	     2.94689e+06	
       929.968	     2.86282e+06	
       929.982	     2.82487e+06	
       929.996	     2.80657e+06	
       930.010	     2.80113e+06	
       930.024	     2.80737e+06	
       930.038	     2.82648e+06	
       930.052	     2.86526e+06	
       930.081	     3.07019e+06	
       930.137	     3.83268e+06	
       930.201	     4.74795e+06	
       930.247	     5.37062e+06	
       930.249	     5.39722e+06	
       930.251	     5.42368e+06	
       930.301	     6.04967e+06	
       930.326	     6.32820e+06	
       930.402	     7.21209e+06	
       930.478	     8.04245e+06	
       930.630	     9.64353e+06	
       930.633	     9.67425e+06	
       930.782	     1.11420e+07	
       930.931	     1.25711e+07	
       931.080	     1.38642e+07	
       931.229	     1.51140e+07	
       931.379	     1.63737e+07	
       931.516	     1.74507e+07	
       931.528	     1.75409e+07	
       931.677	     1.85925e+07	
       931.838	     1.96582e+07	
       931.999	     2.06101e+07	
       932.160	     2.13934e+07	
       932.321	     2.20894e+07	
       932.483	     2.26984e+07	
       932.644	     2.32299e+07	
       932.805	     2.36567e+07	
       932.966	     2.39901e+07	
       933.127	     2.42613e+07	
       933.173	     2.43274e+07	
       933.265	     2.44439e+07	
       933.288	     2.44697e+07	
       933.403	     2.45779e+07	
       933.432	     2.45965e+07	
       933.542	     2.46454e+07	
       933.652	     2.46564e+07	
       933.762	     2.46254e+07	
       933.872	     2.45525e+07	
       933.982	     2.44285e+07	
       934.092	     2.42478e+07	
       934.202	     2.40148e+07	
       934.312	     2.37273e+07	
       934.413	     2.34278e+07	
       934.422	     2.34010e+07	
       934.533	     2.30465e+07	
       934.652	     2.26034e+07	
       934.771	     2.20994e+07	
       934.890	     2.15523e+07	
       935.009	     2.09362e+07	
       935.026	     2.08425e+07	
       935.128	     2.02769e+07	
       935.230	     1.97150e+07	
       935.332	     1.91155e+07	
       935.434	     1.84950e+07	
       935.537	     1.78421e+07	
       935.639	     1.71507e+07	
       935.741	     1.64258e+07	
       935.843	     1.56574e+07	
       935.945	     1.48340e+07	
       935.950	     1.47924e+07	
       936.047	     1.39743e+07	
       936.144	     1.31160e+07	
       936.338	     1.12772e+07	
       936.464	     1.00099e+07	
       936.532	     9.28655e+06	
       936.601	     8.53938e+06	
       936.645	     8.04433e+06	
       936.714	     7.24018e+06	
       936.737	     6.96262e+06	
       936.829	     5.80092e+06	
       936.887	     4.95165e+06	
       936.944	     4.05165e+06	
       936.973	     3.57928e+06	
       937.001	     3.18218e+06	
       937.015	     3.07318e+06	
       937.029	     3.00605e+06	
       937.043	     2.98299e+06	
       937.058	     2.97407e+06	
       937.072	     2.97264e+06	
       937.086	     2.97490e+06	
       937.101	     2.98471e+06	
       937.115	     3.00863e+06	
       937.143	     3.18667e+06	
       937.150	     3.27574e+06	
       937.186	     3.83014e+06	
       937.199	     4.04549e+06	
       937.250	     4.86130e+06	
       937.314	     5.81330e+06	
       937.341	     6.17709e+06	
       937.442	     7.43254e+06	
       937.543	     8.61123e+06	
       937.645	     9.74098e+06	
       937.746	     1.08091e+07	
       937.847	     1.18345e+07	
       937.896	     1.23247e+07	
       937.948	     1.28379e+07	
       938.000	     1.33396e+07	
       938.104	     1.43068e+07	
       938.208	     1.52373e+07	
       938.312	     1.61359e+07	
       938.416	     1.69856e+07	
       938.520	     1.78010e+07	
       938.543	     1.79783e+07	
       938.556	     1.80782e+07	
       938.624	     1.85940e+07	
       938.729	     1.93563e+07	
       938.914	     2.06876e+07	
       939.093	     2.19493e+07	
       939.271	     2.32302e+07	
       939.449	     2.44412e+07	
       939.628	     2.56202e+07	
       939.807	     2.67645e+07	
       939.986	     2.79271e+07	
       940.164	     2.90289e+07	
       940.343	     3.00448e+07	
       940.521	     3.09966e+07	
       940.580	     3.12957e+07	
       940.660	     3.16949e+07	
       940.700	     3.18903e+07	
       940.740	     3.20807e+07	
       940.901	     3.27417e+07	
       941.061	     3.33574e+07	
       941.221	     3.39314e+07	
       941.381	     3.44560e+07	
       941.541	     3.49128e+07	
       941.701	     3.53379e+07	
       942.022	     3.60985e+07	
       942.342	     3.67302e+07	
       942.662	     3.72081e+07	
       942.917	     3.74814e+07	
       942.982	     3.75354e+07	
       943.048	     3.75819e+07	
       943.178	     3.76551e+07	
       943.438	     3.76492e+07	
       943.698	     3.74773e+07	
       943.828	     3.73278e+07	
       943.958	     3.71346e+07	
       944.088	     3.68905e+07	
       944.219	     3.65892e+07	
       944.349	     3.62376e+07	
       944.479	     3.58355e+07	
       944.609	     3.53812e+07	
       944.691	     3.50687e+07	
       944.739	     3.48764e+07	
       944.845	     3.44620e+07	
       944.999	     3.38167e+07	
       945.153	     3.31133e+07	
       945.308	     3.23593e+07	
       945.462	     3.15985e+07	
       945.616	     3.08074e+07	
       945.770	     2.99668e+07	
       945.924	     2.90947e+07	
       946.078	     2.82287e+07	
       946.232	     2.73303e+07	
       946.541	     2.55481e+07	
       946.695	     2.46387e+07	
       946.849	     2.37181e+07	
       947.003	     2.27593e+07	
       947.108	     2.20842e+07	
       947.157	     2.17627e+07	
       947.208	     2.14242e+07	
       947.308	     2.07437e+07	
       947.509	     1.93075e+07	
       947.709	     1.77617e+07	
       947.735	     1.75518e+07	
       947.909	     1.60608e+07	
       948.083	     1.44456e+07	
       948.257	     1.26932e+07	
       948.317	     1.20646e+07	
       948.431	     1.08193e+07	
       948.546	     9.49056e+06	
       948.660	     8.07678e+06	
       948.727	     7.19092e+06	
       948.761	     6.72213e+06	
       948.771	     6.57780e+06	
       948.774	     6.53392e+06	
       948.777	     6.48987e+06	
       948.827	     5.68795e+06	
       948.835	     5.55248e+06	
       948.893	     4.50841e+06	
       948.922	     3.95539e+06	
       948.951	     3.48283e+06	
       948.966	     3.38174e+06	
       948.980	     3.34303e+06	
       948.994	     3.33590e+06	
       949.009	     3.33467e+06	
       949.023	     3.33493e+06	
       949.037	     3.33559e+06	
       949.052	     3.33779e+06	
       949.066	     3.34580e+06	
       949.095	     3.48767e+06	
       949.153	     4.51937e+06	
       949.230	     5.89416e+06	
       949.258	     6.35387e+06	
       949.269	     6.51846e+06	
       949.280	     6.68094e+06	
       949.330	     7.37838e+06	
       949.360	     7.78496e+06	
       949.430	     8.69288e+06	
       949.500	     9.56810e+06	
       949.640	     1.12253e+07	
       949.781	     1.27693e+07	
       949.795	     1.29176e+07	
       949.879	     1.38061e+07	
       949.921	     1.42402e+07	
       949.963	     1.46677e+07	
       950.131	     1.62954e+07	
       950.299	     1.78157e+07	
       950.467	     1.92209e+07	
       950.635	     2.05559e+07	
       950.719	     2.11981e+07	
       950.804	     2.18251e+07	
       950.888	     2.24394e+07	
       951.056	     2.36397e+07	
       951.224	     2.48069e+07	
       951.392	     2.59531e+07	
       951.560	     2.70994e+07	
       951.728	     2.82402e+07	
       951.896	     2.94601e+07	
       952.065	     3.06746e+07	
       952.233	     3.19139e+07	
       952.401	     3.31828e+07	
       952.688	     3.53247e+07	
       952.737	     3.57171e+07	
       952.788	     3.61258e+07	
       952.888	     3.69307e+07	
       953.089	     3.85508e+07	
       953.489	     4.19123e+07	
       953.889	     4.53589e+07	
       954.290	     4.86460e+07	
       954.490	     5.02268e+07	
       954.690	     5.17678e+07	
       954.890	     5.32151e+07	
       955.090	     5.44919e+07	
       955.290	     5.57328e+07	
       955.491	     5.69429e+07	
       955.768	     5.85678e+07	
       955.891	     5.92467e+07	
       956.014	     5.99095e+07	
       956.260	     6.12218e+07	
       956.753	     6.37297e+07	
       957.245	     6.60771e+07	
       957.738	     6.82520e+07	
       958.156	     6.99526e+07	
       958.230	     7.02391e+07	
       958.722	     7.20377e+07	
       959.289	     7.38186e+07	
       959.572	     7.46094e+07	
       959.855	     7.53081e+07	
       960.139	     7.59116e+07	
       960.380	     7.63420e+07	
       960.414	     7.63963e+07	
       960.422	     7.64089e+07	
       960.430	     7.64214e+07	
       960.480	     7.65157e+07	
       960.580	     7.66932e+07	
       960.780	     7.70026e+07	
       961.180	     7.74220e+07	
       961.581	     7.75728e+07	
       961.981	     7.74403e+07	
       962.381	     7.70086e+07	
       962.782	     7.62785e+07	
       963.182	     7.52144e+07	
       963.582	     7.38551e+07	
       963.735	     7.32604e+07	
       963.983	     7.22048e+07	
       964.231	     7.10254e+07	
       964.479	     6.97547e+07	
       964.727	     6.83931e+07	
       964.976	     6.69197e+07	
       965.224	     6.53718e+07	
       965.472	     6.37382e+07	
       965.968	     6.02649e+07	
       966.465	     5.66011e+07	
       966.883	     5.34203e+07	
       966.961	     5.28168e+07	
       967.458	     4.89900e+07	
       968.032	     4.45735e+07	
       969.065	     3.66636e+07	
       969.132	     3.61506e+07	
       969.181	     3.57743e+07	
       969.297	     3.48776e+07	
       969.529	     3.30540e+07	
       969.728	     3.14568e+07	
       969.927	     2.98082e+07	
       970.125	     2.80848e+07	
       970.324	     2.62672e+07	
       970.522	     2.43265e+07	
       970.568	     2.38585e+07	
       970.721	     2.21933e+07	
       970.874	     2.03993e+07	
       971.027	     1.84520e+07	
       971.181	     1.62992e+07	
       971.292	     1.45776e+07	
       971.320	     1.41196e+07	
       971.334	     1.38875e+07	
       971.348	     1.36523e+07	
       971.404	     1.26874e+07	
       971.447	     1.19152e+07	
       971.467	     1.15489e+07	
       971.516	     1.06245e+07	
       971.585	     9.26277e+06	
       971.644	     8.02187e+06	
       971.703	     6.68399e+06	
       971.732	     5.99202e+06	
       971.762	     5.24121e+06	
       971.778	     4.83931e+06	
       971.792	     4.51079e+06	
       971.806	     4.24706e+06	
       971.821	     4.13176e+06	
       971.827	     4.12972e+06	
       971.833	     4.12994e+06	
       971.836	     4.13006e+06	
       971.839	     4.13019e+06	
       971.851	     4.13063e+06	
       971.866	     4.17785e+06	
       971.880	     4.38946e+06	
       971.910	     5.09610e+06	
       971.969	     6.55716e+06	
       972.037	     8.11354e+06	
       972.087	     9.17493e+06	
       972.137	     1.01861e+07	
       972.150	     1.04404e+07	
       972.237	     1.20876e+07	
       972.324	     1.36266e+07	
       972.499	     1.63904e+07	
       972.548	     1.70977e+07	
       972.673	     1.87793e+07	
       972.798	     2.03128e+07	
       972.923	     2.17172e+07	
       973.048	     2.30092e+07	
       973.173	     2.42075e+07	
       973.298	     2.53225e+07	
       973.351	     2.57801e+07	
       973.423	     2.63841e+07	
       973.548	     2.73961e+07	
       973.746	     2.89117e+07	
       973.943	     3.03626e+07	
       974.140	     3.17273e+07	
       974.337	     3.30643e+07	
       974.731	     3.56926e+07	
       975.126	     3.82168e+07	
       975.400	     3.99535e+07	
       975.520	     4.06616e+07	
       975.640	     4.13782e+07	
       975.880	     4.28454e+07	
       976.120	     4.43005e+07	
       976.361	     4.57790e+07	
       976.601	     4.73391e+07	
       976.841	     4.90120e+07	
       977.081	     5.08363e+07	
       977.321	     5.28133e+07	
       977.562	     5.46160e+07	
       977.802	     5.65754e+07	
       978.042	     5.86271e+07	
       978.282	     6.06327e+07	
       978.522	     6.28215e+07	
       978.762	     6.52600e+07	
       978.883	     6.65964e+07	
       979.003	     6.80189e+07	
       979.123	     6.95379e+07	
       979.181	     7.03104e+07	
       979.243	     7.11668e+07	
       979.305	     7.20581e+07	
       979.429	     7.36304e+07	
       979.553	     7.53021e+07	
       979.677	     7.70881e+07	
       979.801	     7.90051e+07	
       979.925	     8.10726e+07	
       980.049	     8.28620e+07	
       980.173	     8.44338e+07	
       980.298	     8.60715e+07	
       980.422	     8.77836e+07	
       980.546	     8.95759e+07	
       980.794	     9.28234e+07	
       981.042	     9.57693e+07	
       981.290	     9.88568e+07	
       981.636	     1.03012e+08	
       981.787	     1.04879e+08	
       982.207	     1.10003e+08	
       982.779	     1.16858e+08	
       983.066	     1.20371e+08	
       983.351	     1.23986e+08	
