# Koester WD models
# teff = 18250 K (value for the effective temperature for the model. Temperatures are given in K)
# logg = 9 log(cm/s2) (value for Log(G) for the model.)
#
#   WAVELENGTH	#           FLUX	
#   (ANGSTROM)	#  (ERG/CM2/S/A)	
##############	################	
       899.230	     3.66432e+06	
       904.235	     3.83579e+06	
       908.450	     3.98445e+06	
       909.241	     4.01276e+06	
       910.032	     4.04116e+06	
       911.193	     4.08297e+06	
       911.613	     4.09805e+06	
       911.824	     4.10553e+06	
       911.929	     4.10923e+06	
       912.034	     4.11294e+06	
       912.139	     4.14935e+06	
       912.244	     4.18548e+06	
       912.349	     4.22158e+06	
       912.454	     4.25774e+06	
       912.559	     4.29339e+06	
       912.664	     4.32817e+06	
       912.770	     4.36216e+06	
       912.875	     4.39521e+06	
       912.886	     4.39861e+06	
       913.037	     4.44278e+06	
       913.085	     4.45600e+06	
       913.284	     4.50646e+06	
       913.531	     4.55694e+06	
       913.649	     4.56985e+06	
       913.736	     4.58358e+06	
       913.779	     4.59009e+06	
       913.822	     4.59602e+06	
       913.994	     4.59068e+06	
       914.097	     4.59269e+06	
       914.165	     4.59606e+06	
       914.216	     4.59857e+06	
       914.336	     4.59238e+06	
       914.455	     4.55170e+06	
       914.575	     4.51899e+06	
       914.696	     4.55804e+06	
       914.815	     4.56788e+06	
       914.935	     4.44353e+06	
       915.021	     4.33961e+06	
       915.037	     4.32820e+06	
       915.054	     4.32054e+06	
       915.071	     4.31890e+06	
       915.121	     4.34699e+06	
       915.221	     4.48280e+06	
       915.321	     4.57887e+06	
       915.421	     4.51679e+06	
       915.521	     4.27904e+06	
       915.601	     4.06777e+06	
       915.609	     4.04530e+06	
       915.622	     4.02312e+06	
       915.643	     3.99077e+06	
       915.677	     3.98084e+06	
       915.745	     4.08963e+06	
       915.881	     4.55751e+06	
       916.017	     4.82618e+06	
       916.153	     4.66545e+06	
       916.289	     4.10220e+06	
       916.379	     3.72134e+06	
       916.421	     3.65254e+06	
       916.425	     3.65179e+06	
       916.429	     3.65213e+06	
       916.479	     3.74494e+06	
       916.580	     4.24344e+06	
       916.680	     4.80472e+06	
       916.780	     5.19978e+06	
       916.880	     5.36628e+06	
       916.980	     5.25098e+06	
       917.080	     4.87632e+06	
       917.180	     4.27100e+06	
       917.182	     4.25783e+06	
       917.280	     3.56637e+06	
       917.378	     3.20694e+06	
       917.575	     4.34831e+06	
       917.771	     5.64381e+06	
       917.967	     6.17961e+06	
       918.163	     5.74085e+06	
       918.359	     4.45047e+06	
       918.510	     3.20304e+06	
       918.556	     2.92064e+06	
       918.602	     2.81739e+06	
       918.694	     3.21291e+06	
       918.878	     4.83438e+06	
       919.062	     6.24200e+06	
       919.201	     6.97745e+06	
       919.241	     7.12268e+06	
       919.246	     7.13842e+06	
       919.251	     7.15350e+06	
       919.301	     7.27420e+06	
       919.402	     7.35818e+06	
       919.502	     7.26751e+06	
       919.602	     6.95734e+06	
       919.702	     6.43420e+06	
       919.802	     5.79922e+06	
       919.902	     5.00500e+06	
       920.002	     4.12058e+06	
       920.102	     3.16019e+06	
       920.165	     2.68127e+06	
       920.189	     2.58168e+06	
       920.202	     2.55577e+06	
       920.215	     2.54683e+06	
       920.265	     2.68419e+06	
       920.366	     3.54193e+06	
       920.466	     4.49160e+06	
       920.566	     5.39389e+06	
       920.666	     6.24778e+06	
       920.766	     7.01116e+06	
       920.866	     7.72094e+06	
       920.966	     8.27188e+06	
       921.066	     8.69907e+06	
       921.166	     8.98734e+06	
       921.266	     9.11828e+06	
       921.367	     9.11385e+06	
       921.467	     8.96243e+06	
       921.567	     8.63988e+06	
       921.667	     8.18137e+06	
       921.767	     7.60221e+06	
       921.867	     6.88078e+06	
       921.967	     6.11875e+06	
       922.067	     5.26097e+06	
       922.167	     4.31334e+06	
       922.267	     3.31209e+06	
       922.331	     2.68170e+06	
       922.368	     2.46363e+06	
       922.405	     2.39778e+06	
       922.479	     2.68585e+06	
       922.627	     4.19214e+06	
       922.670	     4.62986e+06	
       922.740	     5.29189e+06	
       922.775	     5.61249e+06	
       922.810	     5.93620e+06	
       922.950	     7.12296e+06	
       923.090	     8.27819e+06	
       923.230	     9.29025e+06	
       923.371	     1.01744e+07	
       923.511	     1.08392e+07	
       923.651	     1.13274e+07	
       923.791	     1.16114e+07	
       923.931	     1.17318e+07	
       924.071	     1.16839e+07	
       924.211	     1.14437e+07	
       924.352	     1.10042e+07	
       924.492	     1.03718e+07	
       924.632	     9.53228e+06	
       924.772	     8.55006e+06	
       924.912	     7.44316e+06	
       925.052	     6.25513e+06	
       925.192	     4.94823e+06	
       925.333	     3.43499e+06	
       925.434	     2.45989e+06	
       925.462	     2.36658e+06	
       925.473	     2.35276e+06	
       925.484	     2.34900e+06	
       925.534	     2.46245e+06	
       925.634	     3.43345e+06	
       925.734	     4.55031e+06	
       925.834	     5.55490e+06	
       925.934	     6.48786e+06	
       926.034	     7.37307e+06	
       926.134	     8.25344e+06	
       926.232	     9.05994e+06	
       926.301	     9.60740e+06	
       926.335	     9.88590e+06	
       926.369	     1.01554e+07	
       926.505	     1.11577e+07	
       926.641	     1.20553e+07	
       926.777	     1.28557e+07	
       926.913	     1.35420e+07	
       927.049	     1.41087e+07	
       927.185	     1.45757e+07	
       927.322	     1.49362e+07	
       927.458	     1.52057e+07	
       927.594	     1.53787e+07	
       927.730	     1.54737e+07	
       927.866	     1.54850e+07	
       928.002	     1.54081e+07	
       928.006	     1.54044e+07	
       928.094	     1.52828e+07	
       928.138	     1.52009e+07	
       928.182	     1.51058e+07	
       928.359	     1.45951e+07	
       928.535	     1.38881e+07	
       928.711	     1.29666e+07	
       928.887	     1.19232e+07	
       928.985	     1.13011e+07	
       929.037	     1.09543e+07	
       929.063	     1.07731e+07	
       929.089	     1.05869e+07	
       929.125	     1.03209e+07	
       929.193	     9.79593e+06	
       929.261	     9.26189e+06	
       929.398	     8.14521e+06	
       929.493	     7.30722e+06	
       929.525	     7.01939e+06	
       929.534	     6.93975e+06	
       929.543	     6.85942e+06	
       929.593	     6.39745e+06	
       929.617	     6.17138e+06	
       929.655	     5.80111e+06	
       929.693	     5.41391e+06	
       929.769	     4.61073e+06	
       929.827	     3.92963e+06	
       929.883	     3.24253e+06	
       929.910	     2.91018e+06	
       929.939	     2.60367e+06	
       929.954	     2.50827e+06	
       929.968	     2.44485e+06	
       929.982	     2.41575e+06	
       929.996	     2.40268e+06	
       930.010	     2.39928e+06	
       930.024	     2.40337e+06	
       930.038	     2.41715e+06	
       930.052	     2.44697e+06	
       930.081	     2.60746e+06	
       930.137	     3.25076e+06	
       930.201	     4.04106e+06	
       930.247	     4.58632e+06	
       930.249	     4.60931e+06	
       930.251	     4.63231e+06	
       930.301	     5.18171e+06	
       930.326	     5.42613e+06	
       930.402	     6.19902e+06	
       930.478	     6.92256e+06	
       930.630	     8.31149e+06	
       930.633	     8.33816e+06	
       930.782	     9.60721e+06	
       930.931	     1.08379e+07	
       931.080	     1.19499e+07	
       931.229	     1.30166e+07	
       931.379	     1.40951e+07	
       931.516	     1.50200e+07	
       931.528	     1.50978e+07	
       931.677	     1.60024e+07	
       931.838	     1.69155e+07	
       931.999	     1.77327e+07	
       932.160	     1.84017e+07	
       932.321	     1.89966e+07	
       932.483	     1.95178e+07	
       932.644	     1.99723e+07	
       932.805	     2.03363e+07	
       932.966	     2.06209e+07	
       933.127	     2.08529e+07	
       933.173	     2.09092e+07	
       933.265	     2.10085e+07	
       933.288	     2.10304e+07	
       933.403	     2.11222e+07	
       933.432	     2.11380e+07	
       933.542	     2.11799e+07	
       933.652	     2.11898e+07	
       933.762	     2.11643e+07	
       933.872	     2.11032e+07	
       933.982	     2.09979e+07	
       934.092	     2.08432e+07	
       934.202	     2.06439e+07	
       934.312	     2.03984e+07	
       934.413	     2.01435e+07	
       934.422	     2.01206e+07	
       934.533	     1.98174e+07	
       934.652	     1.94373e+07	
       934.771	     1.90064e+07	
       934.890	     1.85346e+07	
       935.009	     1.80031e+07	
       935.026	     1.79220e+07	
       935.128	     1.74356e+07	
       935.230	     1.69560e+07	
       935.332	     1.64447e+07	
       935.434	     1.59142e+07	
       935.537	     1.53555e+07	
       935.639	     1.47650e+07	
       935.741	     1.41471e+07	
       935.843	     1.34898e+07	
       935.945	     1.27867e+07	
       935.950	     1.27513e+07	
       936.047	     1.20516e+07	
       936.144	     1.13118e+07	
       936.338	     9.72800e+06	
       936.464	     8.63369e+06	
       936.532	     8.00465e+06	
       936.601	     7.35745e+06	
       936.645	     6.92391e+06	
       936.714	     6.22447e+06	
       936.737	     5.98134e+06	
       936.829	     4.96350e+06	
       936.887	     4.22180e+06	
       936.944	     3.44472e+06	
       936.973	     3.04264e+06	
       937.001	     2.71368e+06	
       937.015	     2.62858e+06	
       937.029	     2.57815e+06	
       937.043	     2.56214e+06	
       937.058	     2.55663e+06	
       937.072	     2.55553e+06	
       937.086	     2.55736e+06	
       937.101	     2.56365e+06	
       937.115	     2.58040e+06	
       937.143	     2.71757e+06	
       937.150	     2.78905e+06	
       937.186	     3.25601e+06	
       937.199	     3.43935e+06	
       937.250	     4.14414e+06	
       937.314	     4.97427e+06	
       937.341	     5.29440e+06	
       937.442	     6.39245e+06	
       937.543	     7.42044e+06	
       937.645	     8.39930e+06	
       937.746	     9.32723e+06	
       937.847	     1.02122e+07	
       937.896	     1.06354e+07	
       937.948	     1.10764e+07	
       938.000	     1.15076e+07	
       938.104	     1.23411e+07	
       938.208	     1.31372e+07	
       938.312	     1.39055e+07	
       938.416	     1.46324e+07	
       938.520	     1.53286e+07	
       938.543	     1.54801e+07	
       938.556	     1.55657e+07	
       938.624	     1.60067e+07	
       938.729	     1.66618e+07	
       938.914	     1.77986e+07	
       939.093	     1.88807e+07	
       939.271	     1.99854e+07	
       939.449	     2.10283e+07	
       939.628	     2.20382e+07	
       939.807	     2.30163e+07	
       939.986	     2.40073e+07	
       940.164	     2.49468e+07	
       940.343	     2.58101e+07	
       940.521	     2.66168e+07	
       940.580	     2.68711e+07	
       940.660	     2.72101e+07	
       940.700	     2.73757e+07	
       940.740	     2.75373e+07	
       940.901	     2.81016e+07	
       941.061	     2.86289e+07	
       941.221	     2.91195e+07	
       941.381	     2.95664e+07	
       941.541	     2.99535e+07	
       941.701	     3.03147e+07	
       942.022	     3.09606e+07	
       942.342	     3.14954e+07	
       942.662	     3.18985e+07	
       942.917	     3.21281e+07	
       942.982	     3.21734e+07	
       943.048	     3.22123e+07	
       943.178	     3.22733e+07	
       943.438	     3.22682e+07	
       943.698	     3.21228e+07	
       943.828	     3.19965e+07	
       943.958	     3.18331e+07	
       944.088	     3.16267e+07	
       944.219	     3.13715e+07	
       944.349	     3.10729e+07	
       944.479	     3.07311e+07	
       944.609	     3.03455e+07	
       944.691	     3.00802e+07	
       944.739	     2.99173e+07	
       944.845	     2.95674e+07	
       944.999	     2.90204e+07	
       945.153	     2.84263e+07	
       945.308	     2.77881e+07	
       945.462	     2.71419e+07	
       945.616	     2.64667e+07	
       945.770	     2.57473e+07	
       945.924	     2.50027e+07	
       946.078	     2.42656e+07	
       946.232	     2.34981e+07	
       946.541	     2.19785e+07	
       946.695	     2.12011e+07	
       946.849	     2.04140e+07	
       947.003	     1.95925e+07	
       947.108	     1.90147e+07	
       947.157	     1.87407e+07	
       947.208	     1.84506e+07	
       947.308	     1.78699e+07	
       947.509	     1.66398e+07	
       947.709	     1.53202e+07	
       947.735	     1.51400e+07	
       947.909	     1.38654e+07	
       948.083	     1.24767e+07	
       948.257	     1.09661e+07	
       948.317	     1.04237e+07	
       948.431	     9.34420e+06	
       948.546	     8.18976e+06	
       948.660	     6.95539e+06	
       948.727	     6.18027e+06	
       948.761	     5.76903e+06	
       948.771	     5.64170e+06	
       948.774	     5.60316e+06	
       948.777	     5.56458e+06	
       948.827	     4.86275e+06	
       948.835	     4.74522e+06	
       948.893	     3.84380e+06	
       948.922	     3.37467e+06	
       948.951	     2.98282e+06	
       948.966	     2.90589e+06	
       948.980	     2.87945e+06	
       948.994	     2.87531e+06	
       949.009	     2.87479e+06	
       949.023	     2.87508e+06	
       949.037	     2.87558e+06	
       949.052	     2.87695e+06	
       949.066	     2.88188e+06	
       949.095	     2.98703e+06	
       949.153	     3.85329e+06	
       949.230	     5.04364e+06	
       949.258	     5.44689e+06	
       949.269	     5.58952e+06	
       949.280	     5.73212e+06	
       949.330	     6.34492e+06	
       949.360	     6.69901e+06	
       949.430	     7.49430e+06	
       949.500	     8.25790e+06	
       949.640	     9.69907e+06	
       949.781	     1.10341e+07	
       949.795	     1.11630e+07	
       949.879	     1.19314e+07	
       949.921	     1.23042e+07	
       949.963	     1.26721e+07	
       950.131	     1.40728e+07	
       950.299	     1.53734e+07	
       950.467	     1.65764e+07	
       950.635	     1.77169e+07	
       950.719	     1.82689e+07	
       950.804	     1.88047e+07	
       950.888	     1.93311e+07	
       951.056	     2.03584e+07	
       951.224	     2.13594e+07	
       951.392	     2.23397e+07	
       951.560	     2.33186e+07	
       951.728	     2.42916e+07	
       951.896	     2.53345e+07	
       952.065	     2.63696e+07	
       952.233	     2.74268e+07	
       952.401	     2.85119e+07	
       952.688	     3.03371e+07	
       952.737	     3.06694e+07	
       952.788	     3.10165e+07	
       952.888	     3.16980e+07	
       953.089	     3.30690e+07	
       953.489	     3.59134e+07	
       953.889	     3.88288e+07	
       954.290	     4.16145e+07	
       954.490	     4.29544e+07	
       954.690	     4.42657e+07	
       954.890	     4.54934e+07	
       955.090	     4.65776e+07	
       955.290	     4.76335e+07	
       955.491	     4.86589e+07	
       955.768	     5.00365e+07	
       955.891	     5.06114e+07	
       956.014	     5.11725e+07	
       956.260	     5.22855e+07	
       956.753	     5.44083e+07	
       957.245	     5.63969e+07	
       957.738	     5.82360e+07	
       958.156	     5.96733e+07	
       958.230	     5.99152e+07	
       958.722	     6.14370e+07	
       959.289	     6.29434e+07	
       959.572	     6.36103e+07	
       959.855	     6.41984e+07	
       960.139	     6.47077e+07	
       960.380	     6.50702e+07	
       960.414	     6.51158e+07	
       960.422	     6.51265e+07	
       960.430	     6.51368e+07	
       960.480	     6.52179e+07	
       960.580	     6.53696e+07	
       960.780	     6.56345e+07	
       961.180	     6.59939e+07	
       961.581	     6.61236e+07	
       961.981	     6.60111e+07	
       962.381	     6.56451e+07	
       962.782	     6.50256e+07	
       963.182	     6.41252e+07	
       963.582	     6.29710e+07	
       963.735	     6.24681e+07	
       963.983	     6.15777e+07	
       964.231	     6.05822e+07	
       964.479	     5.95109e+07	
       964.727	     5.83601e+07	
       964.976	     5.71164e+07	
       965.224	     5.58120e+07	
       965.472	     5.44350e+07	
       965.968	     5.15045e+07	
       966.465	     4.84204e+07	
       966.883	     4.57381e+07	
       966.961	     4.52301e+07	
       967.458	     4.20025e+07	
       968.032	     3.82715e+07	
       969.065	     3.15711e+07	
       969.132	     3.11344e+07	
       969.181	     3.08131e+07	
       969.297	     3.00511e+07	
       969.529	     2.84960e+07	
       969.728	     2.71293e+07	
       969.927	     2.57180e+07	
       970.125	     2.42422e+07	
       970.324	     2.26830e+07	
       970.522	     2.10193e+07	
       970.568	     2.06168e+07	
       970.721	     1.91918e+07	
       970.874	     1.76530e+07	
       971.027	     1.59835e+07	
       971.181	     1.41267e+07	
       971.292	     1.26343e+07	
       971.320	     1.22375e+07	
       971.334	     1.20358e+07	
       971.348	     1.18319e+07	
       971.404	     1.09887e+07	
       971.447	     1.03181e+07	
       971.467	     9.99843e+06	
       971.516	     9.18847e+06	
       971.585	     7.99328e+06	
       971.644	     6.90217e+06	
       971.703	     5.73014e+06	
       971.732	     5.12925e+06	
       971.762	     4.48242e+06	
       971.778	     4.14294e+06	
       971.792	     3.86749e+06	
       971.806	     3.65757e+06	
       971.821	     3.57391e+06	
       971.827	     3.57293e+06	
       971.833	     3.57312e+06	
       971.836	     3.57322e+06	
       971.839	     3.57334e+06	
       971.851	     3.57372e+06	
       971.866	     3.60535e+06	
       971.880	     3.76950e+06	
       971.910	     4.35978e+06	
       971.969	     5.62043e+06	
       972.037	     6.98254e+06	
       972.087	     7.91641e+06	
       972.137	     8.80535e+06	
       972.150	     9.02957e+06	
       972.237	     1.04700e+07	
       972.324	     1.18110e+07	
       972.499	     1.42086e+07	
       972.548	     1.48180e+07	
       972.673	     1.62698e+07	
       972.798	     1.75853e+07	
       972.923	     1.87915e+07	
       973.048	     1.98974e+07	
       973.173	     2.09236e+07	
       973.298	     2.18819e+07	
       973.351	     2.22737e+07	
       973.423	     2.27922e+07	
       973.548	     2.36585e+07	
       973.746	     2.49593e+07	
       973.943	     2.62022e+07	
       974.140	     2.73724e+07	
       974.337	     2.85184e+07	
       974.731	     3.07723e+07	
       975.126	     3.29302e+07	
       975.400	     3.44127e+07	
       975.520	     3.50162e+07	
       975.640	     3.56260e+07	
       975.880	     3.68751e+07	
       976.120	     3.81129e+07	
       976.361	     3.93704e+07	
       976.601	     4.06943e+07	
       976.841	     4.21137e+07	
       977.081	     4.36571e+07	
       977.321	     4.53282e+07	
       977.802	     4.85030e+07	
       978.042	     5.02319e+07	
       978.282	     5.19189e+07	
       978.522	     5.37558e+07	
       978.762	     5.58019e+07	
       978.883	     5.69231e+07	
       979.003	     5.81157e+07	
       979.123	     5.93906e+07	
       979.181	     6.00380e+07	
       979.243	     6.07556e+07	
       979.305	     6.15017e+07	
       979.429	     6.28165e+07	
       979.553	     6.42167e+07	
       979.677	     6.57124e+07	
       979.801	     6.73177e+07	
       979.925	     6.90469e+07	
       980.049	     7.05451e+07	
       980.173	     7.18624e+07	
       980.298	     7.32343e+07	
       980.422	     7.46631e+07	
       980.546	     7.61591e+07	
       980.794	     7.88725e+07	
       981.042	     8.13336e+07	
       981.290	     8.39091e+07	
       981.636	     8.73831e+07	
       981.787	     8.89407e+07	
       982.207	     9.32133e+07	
       982.779	     9.89288e+07	
       983.066	     1.01850e+08	
       983.351	     1.04849e+08	
       983.637	     1.08054e+08	
       983.923	     1.11390e+08	
       984.496	     1.17927e+08	
       984.660	     1.19833e+08	
