# Koester WD models
# teff = 19000 K (value for the effective temperature for the model. Temperatures are given in K)
# logg = 8.75 log(cm/s2) (value for Log(G) for the model.)
#
#   WAVELENGTH	#           FLUX	
#   (ANGSTROM)	#  (ERG/CM2/S/A)	
##############	################	
       899.230	     6.08973e+06	
       904.235	     6.35714e+06	
       908.450	     6.58833e+06	
       909.241	     6.63228e+06	
       910.032	     6.67636e+06	
       911.193	     6.74120e+06	
       911.613	     6.76454e+06	
       911.824	     6.77613e+06	
       911.929	     6.78188e+06	
       912.034	     6.78760e+06	
       912.139	     6.85235e+06	
       912.244	     6.91637e+06	
       912.349	     6.97980e+06	
       912.454	     7.04257e+06	
       912.559	     7.10455e+06	
       912.664	     7.16556e+06	
       912.770	     7.22513e+06	
       912.875	     7.28205e+06	
       912.886	     7.28787e+06	
       913.085	     7.38500e+06	
       913.284	     7.46719e+06	
       913.339	     7.48500e+06	
       913.435	     7.51475e+06	
       913.483	     7.53169e+06	
       913.531	     7.54658e+06	
       913.625	     7.56543e+06	
       913.724	     7.58035e+06	
       913.822	     7.60033e+06	
       913.871	     7.60809e+06	
       914.018	     7.60024e+06	
       914.165	     7.57890e+06	
       914.312	     7.61412e+06	
       914.343	     7.61120e+06	
       914.459	     7.51513e+06	
       914.575	     7.42223e+06	
       914.692	     7.53137e+06	
       914.808	     7.59370e+06	
       914.924	     7.38004e+06	
       915.009	     7.13641e+06	
       915.040	     7.07883e+06	
       915.071	     7.06048e+06	
       915.133	     7.15316e+06	
       915.257	     7.53131e+06	
       915.381	     7.61572e+06	
       915.505	     7.17332e+06	
       915.609	     6.63234e+06	
       915.617	     6.60284e+06	
       915.630	     6.55236e+06	
       915.643	     6.51350e+06	
       915.677	     6.48412e+06	
       915.745	     6.70268e+06	
       915.881	     7.58205e+06	
       916.017	     8.03937e+06	
       916.153	     7.77491e+06	
       916.289	     6.79935e+06	
       916.379	     6.06563e+06	
       916.421	     5.92146e+06	
       916.425	     5.91945e+06	
       916.429	     5.91964e+06	
       916.479	     6.10188e+06	
       916.580	     7.03842e+06	
       916.680	     7.99925e+06	
       916.780	     8.65185e+06	
       916.880	     8.93073e+06	
       916.980	     8.74063e+06	
       917.080	     8.12702e+06	
       917.180	     7.12391e+06	
       917.182	     7.10176e+06	
       917.280	     5.88810e+06	
       917.378	     5.18155e+06	
       917.575	     7.24696e+06	
       917.771	     9.38296e+06	
       917.967	     1.02677e+07	
       918.163	     9.55487e+06	
       918.359	     7.43514e+06	
       918.510	     5.30062e+06	
       918.556	     4.75062e+06	
       918.602	     4.53941e+06	
       918.694	     5.31598e+06	
       918.878	     8.06293e+06	
       919.062	     1.03707e+07	
       919.201	     1.15759e+07	
       919.241	     1.18129e+07	
       919.246	     1.18385e+07	
       919.251	     1.18632e+07	
       919.301	     1.20593e+07	
       919.402	     1.21975e+07	
       919.502	     1.20524e+07	
       919.602	     1.15500e+07	
       919.702	     1.06980e+07	
       919.802	     9.65685e+06	
       919.902	     8.35488e+06	
       920.002	     6.90016e+06	
       920.102	     5.26826e+06	
       920.165	     4.35764e+06	
       920.189	     4.15708e+06	
       920.202	     4.10327e+06	
       920.215	     4.08476e+06	
       920.265	     4.36213e+06	
       920.366	     5.92476e+06	
       920.466	     7.50891e+06	
       920.566	     8.98662e+06	
       920.666	     1.03865e+07	
       920.766	     1.16327e+07	
       920.866	     1.27828e+07	
       920.966	     1.36749e+07	
       921.066	     1.43627e+07	
       921.166	     1.48247e+07	
       921.266	     1.50348e+07	
       921.367	     1.50287e+07	
       921.467	     1.47871e+07	
       921.567	     1.42719e+07	
       921.667	     1.35332e+07	
       921.767	     1.25954e+07	
       921.867	     1.14258e+07	
       921.967	     1.01830e+07	
       922.067	     8.77585e+06	
       922.167	     7.21960e+06	
       922.267	     5.54274e+06	
       922.331	     4.40502e+06	
       922.368	     3.96142e+06	
       922.405	     3.81534e+06	
       922.479	     4.41146e+06	
       922.627	     7.01885e+06	
       922.670	     7.73746e+06	
       922.740	     8.82411e+06	
       922.775	     9.34881e+06	
       922.810	     9.87952e+06	
       922.950	     1.18161e+07	
       923.090	     1.36852e+07	
       923.230	     1.53131e+07	
       923.371	     1.67295e+07	
       923.511	     1.77916e+07	
       923.651	     1.85685e+07	
       923.791	     1.90205e+07	
       923.931	     1.92135e+07	
       924.071	     1.91394e+07	
       924.211	     1.87593e+07	
       924.352	     1.80616e+07	
       924.492	     1.70499e+07	
       924.632	     1.57030e+07	
       924.772	     1.41252e+07	
       924.912	     1.23338e+07	
       925.052	     1.04006e+07	
       925.192	     8.25821e+06	
       925.333	     5.75706e+06	
       925.434	     3.94691e+06	
       925.462	     3.74550e+06	
       925.473	     3.71292e+06	
       925.484	     3.70322e+06	
       925.534	     3.95080e+06	
       925.634	     5.75326e+06	
       925.734	     7.60391e+06	
       925.834	     9.25124e+06	
       925.934	     1.07764e+07	
       926.034	     1.22161e+07	
       926.134	     1.36396e+07	
       926.232	     1.49407e+07	
       926.301	     1.58179e+07	
       926.335	     1.62652e+07	
       926.369	     1.66981e+07	
       926.505	     1.83046e+07	
       926.641	     1.97379e+07	
       926.777	     2.10095e+07	
       926.913	     2.20983e+07	
       927.049	     2.29966e+07	
       927.185	     2.37366e+07	
       927.322	     2.43096e+07	
       927.458	     2.47395e+07	
       927.594	     2.50171e+07	
       927.730	     2.51702e+07	
       927.866	     2.51893e+07	
       928.002	     2.50671e+07	
       928.006	     2.50613e+07	
       928.094	     2.48672e+07	
       928.138	     2.47365e+07	
       928.182	     2.45851e+07	
       928.359	     2.37725e+07	
       928.535	     2.26467e+07	
       928.711	     2.11799e+07	
       928.887	     1.95171e+07	
       928.985	     1.85225e+07	
       929.037	     1.79676e+07	
       929.063	     1.76771e+07	
       929.089	     1.73791e+07	
       929.125	     1.69530e+07	
       929.193	     1.61097e+07	
       929.261	     1.52540e+07	
       929.398	     1.34516e+07	
       929.493	     1.20959e+07	
       929.525	     1.16301e+07	
       929.534	     1.14999e+07	
       929.543	     1.13689e+07	
       929.593	     1.06184e+07	
       929.617	     1.02493e+07	
       929.655	     9.64497e+06	
       929.693	     9.01087e+06	
       929.769	     7.69429e+06	
       929.827	     6.57931e+06	
       929.883	     5.41589e+06	
       929.910	     4.82247e+06	
       929.939	     4.22246e+06	
       929.954	     4.00999e+06	
       929.968	     3.86268e+06	
       929.982	     3.78798e+06	
       929.996	     3.75433e+06	
       930.010	     3.74399e+06	
       930.024	     3.75537e+06	
       930.038	     3.79005e+06	
       930.052	     3.86589e+06	
       930.081	     4.22830e+06	
       930.137	     5.42886e+06	
       930.201	     6.76159e+06	
       930.247	     7.65276e+06	
       930.249	     7.69062e+06	
       930.251	     7.72819e+06	
       930.301	     8.62750e+06	
       930.326	     9.02869e+06	
       930.402	     1.02910e+07	
       930.478	     1.14676e+07	
       930.630	     1.37150e+07	
       930.633	     1.37582e+07	
       930.782	     1.58008e+07	
       930.931	     1.77716e+07	
       931.080	     1.95513e+07	
       931.229	     2.12507e+07	
       931.379	     2.29690e+07	
       931.516	     2.44440e+07	
       931.528	     2.45685e+07	
       931.677	     2.60186e+07	
       931.838	     2.74814e+07	
       931.999	     2.87919e+07	
       932.160	     2.98748e+07	
       932.321	     3.08428e+07	
       932.483	     3.16933e+07	
       932.644	     3.24420e+07	
       932.805	     3.30433e+07	
       932.966	     3.35114e+07	
       933.127	     3.38934e+07	
       933.173	     3.39864e+07	
       933.265	     3.41504e+07	
       933.288	     3.41865e+07	
       933.403	     3.43373e+07	
       933.432	     3.43634e+07	
       933.542	     3.44315e+07	
       933.652	     3.44460e+07	
       933.762	     3.44011e+07	
       933.872	     3.42965e+07	
       933.982	     3.41186e+07	
       934.092	     3.38595e+07	
       934.202	     3.35277e+07	
       934.312	     3.31196e+07	
       934.413	     3.26955e+07	
       934.422	     3.26578e+07	
       934.533	     3.21570e+07	
       934.652	     3.15356e+07	
       934.771	     3.08301e+07	
       934.890	     3.00616e+07	
       935.009	     2.91999e+07	
       935.026	     2.90692e+07	
       935.128	     2.82857e+07	
       935.230	     2.75125e+07	
       935.332	     2.66909e+07	
       935.434	     2.58385e+07	
       935.537	     2.49465e+07	
       935.639	     2.40056e+07	
       935.741	     2.30207e+07	
       935.843	     2.19746e+07	
       935.945	     2.08546e+07	
       935.950	     2.07979e+07	
       936.047	     1.96801e+07	
       936.144	     1.84976e+07	
       936.338	     1.59658e+07	
       936.464	     1.42063e+07	
       936.532	     1.31953e+07	
       936.601	     1.21480e+07	
       936.645	     1.14468e+07	
       936.714	     1.03103e+07	
       936.737	     9.91251e+06	
       936.829	     8.25105e+06	
       936.887	     7.04131e+06	
       936.944	     5.73042e+06	
       936.973	     5.00811e+06	
       937.001	     4.35107e+06	
       937.015	     4.15309e+06	
       937.029	     4.02416e+06	
       937.043	     3.97367e+06	
       937.058	     3.95423e+06	
       937.072	     3.94977e+06	
       937.086	     3.95530e+06	
       937.101	     3.97591e+06	
       937.115	     4.02752e+06	
       937.143	     4.35701e+06	
       937.150	     4.50608e+06	
       937.186	     5.39924e+06	
       937.199	     5.72015e+06	
       937.250	     6.91188e+06	
       937.314	     8.26716e+06	
       937.341	     8.78920e+06	
       937.442	     1.05802e+07	
       937.543	     1.22459e+07	
       937.645	     1.38253e+07	
       937.746	     1.53148e+07	
       937.847	     1.67318e+07	
       937.896	     1.74065e+07	
       937.948	     1.81117e+07	
       938.000	     1.87994e+07	
       938.104	     2.01297e+07	
       938.208	     2.13989e+07	
       938.312	     2.26203e+07	
       938.416	     2.37754e+07	
       938.520	     2.48827e+07	
       938.543	     2.51237e+07	
       938.556	     2.52597e+07	
       938.624	     2.59622e+07	
       938.729	     2.70055e+07	
       938.914	     2.88317e+07	
       939.271	     3.23713e+07	
       939.628	     3.57498e+07	
       939.807	     3.73843e+07	
       939.986	     3.90629e+07	
       940.164	     4.06663e+07	
       940.343	     4.21570e+07	
       940.521	     4.35632e+07	
       940.580	     4.40077e+07	
       940.660	     4.46031e+07	
       940.700	     4.48949e+07	
       940.740	     4.51802e+07	
       940.901	     4.61770e+07	
       941.061	     4.71110e+07	
       941.221	     4.79853e+07	
       941.381	     4.87848e+07	
       941.541	     4.94747e+07	
       941.701	     5.01207e+07	
       942.022	     5.12780e+07	
       942.342	     5.22371e+07	
       942.662	     5.29547e+07	
       942.917	     5.33568e+07	
       942.982	     5.34347e+07	
       943.048	     5.35013e+07	
       943.178	     5.36028e+07	
       943.308	     5.36226e+07	
       943.438	     5.35714e+07	
       943.568	     5.34589e+07	
       943.698	     5.32817e+07	
       943.828	     5.30373e+07	
       943.958	     5.27253e+07	
       944.088	     5.23352e+07	
       944.219	     5.18573e+07	
       944.349	     5.13041e+07	
       944.479	     5.06748e+07	
       944.609	     4.99695e+07	
       944.691	     4.94854e+07	
       944.739	     4.91892e+07	
       944.845	     4.85558e+07	
       944.999	     4.75757e+07	
       945.153	     4.65166e+07	
       945.308	     4.53875e+07	
       945.616	     4.30747e+07	
       945.924	     4.05570e+07	
       946.232	     3.80073e+07	
       946.540	     3.54903e+07	
       946.849	     3.29267e+07	
       947.004	     3.15953e+07	
       947.158	     3.02207e+07	
       947.312	     2.87922e+07	
       947.468	     2.72919e+07	
       947.471	     2.72620e+07	
       947.622	     2.57145e+07	
       947.624	     2.56988e+07	
       947.777	     2.40375e+07	
       947.930	     2.22279e+07	
       948.033	     2.09353e+07	
       948.083	     2.02785e+07	
       948.133	     1.96077e+07	
       948.233	     1.82156e+07	
       948.333	     1.67782e+07	
       948.433	     1.52569e+07	
       948.495	     1.42641e+07	
       948.521	     1.38366e+07	
       948.534	     1.36378e+07	
       948.546	     1.34371e+07	
       948.596	     1.25795e+07	
       948.615	     1.22488e+07	
       948.661	     1.14295e+07	
       948.696	     1.07779e+07	
       948.777	     9.19095e+06	
       948.835	     7.86127e+06	
       948.893	     6.34687e+06	
       948.922	     5.50036e+06	
       948.951	     4.71182e+06	
       948.966	     4.51698e+06	
       948.980	     4.43348e+06	
       948.994	     4.41274e+06	
       949.009	     4.40765e+06	
       949.023	     4.40734e+06	
       949.037	     4.40882e+06	
       949.052	     4.41513e+06	
       949.066	     4.43706e+06	
       949.095	     4.71814e+06	
       949.153	     6.36169e+06	
       949.230	     8.34486e+06	
       949.258	     8.99812e+06	
       949.269	     9.22978e+06	
       949.280	     9.46091e+06	
       949.330	     1.04542e+07	
       949.360	     1.10283e+07	
       949.430	     1.23139e+07	
       949.500	     1.35421e+07	
       949.640	     1.58492e+07	
       949.781	     1.79779e+07	
       949.795	     1.81823e+07	
       949.879	     1.94002e+07	
       949.921	     1.99933e+07	
       949.963	     2.05766e+07	
       950.131	     2.27966e+07	
       950.299	     2.48548e+07	
       950.467	     2.67555e+07	
       950.635	     2.85604e+07	
       950.719	     2.94334e+07	
       950.804	     3.02893e+07	
       950.888	     3.11284e+07	
       951.056	     3.27744e+07	
       951.392	     3.59775e+07	
       951.560	     3.75800e+07	
       951.728	     3.91867e+07	
       951.896	     4.09268e+07	
       952.065	     4.26741e+07	
       952.233	     4.44749e+07	
       952.401	     4.63379e+07	
       952.688	     4.95168e+07	
       952.737	     5.00999e+07	
       952.788	     5.07103e+07	
       952.888	     5.19164e+07	
       953.089	     5.43646e+07	
       953.289	     5.68606e+07	
       953.489	     5.95448e+07	
       953.889	     6.49813e+07	
       954.290	     7.02765e+07	
       954.490	     7.28548e+07	
       954.690	     7.53929e+07	
       954.890	     7.77918e+07	
       955.090	     7.99139e+07	
       955.290	     8.19943e+07	
       955.491	     8.40297e+07	
       955.768	     8.67730e+07	
       955.891	     8.79212e+07	
       956.014	     8.90450e+07	
       956.260	     9.12774e+07	
       956.753	     9.55635e+07	
       957.245	     9.96055e+07	
       957.738	     1.03376e+08	
       958.156	     1.06332e+08	
       958.230	     1.06831e+08	
       958.722	     1.09967e+08	
       959.289	     1.13077e+08	
       959.572	     1.14459e+08	
       959.855	     1.15673e+08	
       960.139	     1.16720e+08	
       960.380	     1.17458e+08	
       960.414	     1.17551e+08	
       960.422	     1.17573e+08	
       960.430	     1.17594e+08	
       960.480	     1.17755e+08	
       960.580	     1.18056e+08	
       960.780	     1.18578e+08	
       961.180	     1.19262e+08	
       961.581	     1.19460e+08	
       961.981	     1.19143e+08	
       962.381	     1.18286e+08	
       962.582	     1.17655e+08	
       962.782	     1.16889e+08	
       962.982	     1.15957e+08	
       963.182	     1.14895e+08	
       963.582	     1.12379e+08	
       963.735	     1.11288e+08	
       963.983	     1.09364e+08	
       964.231	     1.07225e+08	
       964.479	     1.04938e+08	
       964.727	     1.02500e+08	
       964.976	     9.98860e+07	
       965.224	     9.71585e+07	
       965.472	     9.43021e+07	
       965.968	     8.83092e+07	
       966.465	     8.21134e+07	
       966.961	     7.58390e+07	
       967.876	     6.45588e+07	
       967.954	     6.36304e+07	
       968.032	     6.26993e+07	
       968.188	     6.08319e+07	
       968.500	     5.71940e+07	
       968.813	     5.36408e+07	
       968.953	     5.20659e+07	
       969.125	     5.01408e+07	
       969.297	     4.82222e+07	
       969.356	     4.75606e+07	
       969.641	     4.43404e+07	
       969.927	     4.10452e+07	
       970.069	     3.93462e+07	
       970.212	     3.75973e+07	
       970.354	     3.57846e+07	
       970.497	     3.38912e+07	
       970.639	     3.18931e+07	
       970.690	     3.11419e+07	
       970.782	     2.97346e+07	
       970.874	     2.82629e+07	
       971.058	     2.50757e+07	
       971.137	     2.35755e+07	
       971.243	     2.14393e+07	
       971.348	     1.91085e+07	
       971.453	     1.65609e+07	
       971.531	     1.45146e+07	
       971.558	     1.37739e+07	
       971.575	     1.32956e+07	
       971.585	     1.30094e+07	
       971.639	     1.14223e+07	
       971.644	     1.12694e+07	
       971.703	     9.39672e+06	
       971.732	     8.40891e+06	
       971.762	     7.33694e+06	
       971.778	     6.73545e+06	
       971.792	     6.21149e+06	
       971.806	     5.74085e+06	
       971.821	     5.44140e+06	
       971.827	     5.42098e+06	
       971.833	     5.42082e+06	
       971.836	     5.42094e+06	
       971.839	     5.42110e+06	
       971.851	     5.42214e+06	
       971.866	     5.58575e+06	
       971.880	     6.00500e+06	
       971.910	     7.12262e+06	
       971.969	     9.21614e+06	
       972.037	     1.13965e+07	
       972.087	     1.28852e+07	
       972.137	     1.43023e+07	
       972.150	     1.46603e+07	
       972.237	     1.69483e+07	
       972.324	     1.90697e+07	
       972.499	     2.28432e+07	
       972.548	     2.38025e+07	
       972.673	     2.60825e+07	
       972.798	     2.81476e+07	
       972.923	     3.00372e+07	
       973.048	     3.17744e+07	
       973.173	     3.33873e+07	
       973.298	     3.48956e+07	
       973.423	     3.63357e+07	
       973.548	     3.77126e+07	
       973.601	     3.82797e+07	
       973.673	     3.90384e+07	
       973.746	     3.97829e+07	
       973.890	     4.12450e+07	
       974.178	     4.40257e+07	
       974.466	     4.67570e+07	
       975.043	     5.20732e+07	
       975.556	     5.67205e+07	
       975.598	     5.70887e+07	
       975.619	     5.72734e+07	
       975.640	     5.74585e+07	
       975.724	     5.82049e+07	
       975.892	     5.97342e+07	
       976.228	     6.27769e+07	
       976.397	     6.43621e+07	
       976.565	     6.60215e+07	
       976.733	     6.77726e+07	
       976.901	     6.96387e+07	
       977.069	     7.16412e+07	
       977.237	     7.38089e+07	
       977.405	     7.58679e+07	
       977.574	     7.79036e+07	
       977.742	     8.00776e+07	
       977.910	     8.24181e+07	
       978.078	     8.46876e+07	
       978.246	     8.69794e+07	
       978.414	     8.94292e+07	
       978.582	     9.20622e+07	
       978.750	     9.49421e+07	
       978.919	     9.81028e+07	
       979.087	     1.01583e+08	
       979.105	     1.01978e+08	
       979.205	     1.04255e+08	
       979.255	     1.05451e+08	
       979.305	     1.06689e+08	
       979.505	     1.11139e+08	
       979.705	     1.16124e+08	
       979.905	     1.21778e+08	
       980.105	     1.26796e+08	
       980.306	     1.31454e+08	
       980.506	     1.36492e+08	
       980.706	     1.41585e+08	
       980.906	     1.45816e+08	
       981.106	     1.50230e+08	
       981.506	     1.59245e+08	
       982.307	     1.77409e+08	
       982.707	     1.86508e+08	
       983.108	     1.95881e+08	
