# Koester WD models
# teff = 19000 K (value for the effective temperature for the model. Temperatures are given in K)
# logg = 8.5 log(cm/s2) (value for Log(G) for the model.)
#
#   WAVELENGTH	#           FLUX	
#   (ANGSTROM)	#  (ERG/CM2/S/A)	
##############	################	
       899.230	     6.00955e+06	
       904.235	     6.27395e+06	
       908.450	     6.50259e+06	
       909.241	     6.54604e+06	
       910.032	     6.58965e+06	
       911.193	     6.65389e+06	
       911.613	     6.67702e+06	
       911.824	     6.68848e+06	
       911.929	     6.69417e+06	
       912.034	     6.69982e+06	
       912.139	     6.78003e+06	
       912.244	     6.85951e+06	
       912.349	     6.93830e+06	
       912.454	     7.01634e+06	
       912.559	     7.09337e+06	
       912.664	     7.16861e+06	
       912.770	     7.24203e+06	
       912.875	     7.31300e+06	
       912.886	     7.32023e+06	
       913.085	     7.43656e+06	
       913.284	     7.52305e+06	
       913.339	     7.54011e+06	
       913.435	     7.56624e+06	
       913.483	     7.58201e+06	
       913.531	     7.59763e+06	
       913.625	     7.61726e+06	
       913.724	     7.61949e+06	
       913.822	     7.62766e+06	
       913.871	     7.63982e+06	
       914.018	     7.63241e+06	
       914.165	     7.54322e+06	
       914.312	     7.65295e+06	
       914.343	     7.65795e+06	
       914.459	     7.48129e+06	
       914.575	     7.27979e+06	
       914.692	     7.51252e+06	
       914.808	     7.66775e+06	
       914.924	     7.34853e+06	
       915.009	     6.93287e+06	
       915.040	     6.82781e+06	
       915.071	     6.79351e+06	
       915.133	     6.95696e+06	
       915.257	     7.59423e+06	
       915.381	     7.76046e+06	
       915.505	     7.16531e+06	
       915.609	     6.36955e+06	
       915.617	     6.32280e+06	
       915.630	     6.24068e+06	
       915.643	     6.17945e+06	
       915.677	     6.11762e+06	
       915.745	     6.43147e+06	
       915.881	     7.66103e+06	
       916.017	     8.27276e+06	
       916.153	     7.94634e+06	
       916.289	     6.69414e+06	
       916.379	     5.69034e+06	
       916.421	     5.48120e+06	
       916.425	     5.47756e+06	
       916.429	     5.47690e+06	
       916.479	     5.71720e+06	
       916.580	     6.94160e+06	
       916.680	     8.13782e+06	
       916.780	     8.94864e+06	
       916.880	     9.30386e+06	
       916.980	     9.09208e+06	
       917.080	     8.37567e+06	
       917.180	     7.20006e+06	
       917.182	     7.17310e+06	
       917.280	     5.70372e+06	
       917.378	     4.79721e+06	
       917.575	     7.30276e+06	
       917.771	     9.77485e+06	
       917.967	     1.08234e+07	
       918.163	     1.00508e+07	
       918.359	     7.66825e+06	
       918.510	     5.19252e+06	
       918.556	     4.51840e+06	
       918.602	     4.25956e+06	
       918.694	     5.20552e+06	
       918.878	     8.33876e+06	
       919.062	     1.09261e+07	
       919.201	     1.22675e+07	
       919.241	     1.25320e+07	
       919.246	     1.25608e+07	
       919.251	     1.25885e+07	
       919.301	     1.28080e+07	
       919.402	     1.29701e+07	
       919.502	     1.28187e+07	
       919.602	     1.22775e+07	
       919.702	     1.13666e+07	
       919.802	     1.02086e+07	
       919.902	     8.77557e+06	
       920.002	     7.15479e+06	
       920.102	     5.28774e+06	
       920.165	     4.20911e+06	
       920.189	     3.97939e+06	
       920.202	     3.91474e+06	
       920.215	     3.89347e+06	
       920.265	     4.21338e+06	
       920.366	     6.04992e+06	
       920.466	     7.82348e+06	
       920.566	     9.45010e+06	
       920.666	     1.09912e+07	
       920.766	     1.23360e+07	
       920.866	     1.35597e+07	
       920.966	     1.45100e+07	
       921.066	     1.52314e+07	
       921.166	     1.57188e+07	
       921.266	     1.59446e+07	
       921.367	     1.59432e+07	
       921.467	     1.56929e+07	
       921.567	     1.51614e+07	
       921.667	     1.43971e+07	
       921.767	     1.34030e+07	
       921.867	     1.21698e+07	
       921.967	     1.08304e+07	
       922.067	     9.28824e+06	
       922.167	     7.57092e+06	
       922.267	     5.69593e+06	
       922.331	     4.36974e+06	
       922.368	     3.85021e+06	
       922.405	     3.68380e+06	
       922.479	     4.37611e+06	
       922.627	     7.34548e+06	
       922.740	     9.33656e+06	
       922.775	     9.90667e+06	
       922.810	     1.04889e+07	
       922.880	     1.15464e+07	
       923.020	     1.35920e+07	
       923.160	     1.54085e+07	
       923.301	     1.70162e+07	
       923.441	     1.82889e+07	
       923.581	     1.92336e+07	
       923.721	     1.98534e+07	
       923.861	     2.01845e+07	
       924.001	     2.02537e+07	
       924.141	     2.00353e+07	
       924.282	     1.94998e+07	
       924.422	     1.86207e+07	
       924.562	     1.73953e+07	
       924.702	     1.58550e+07	
       924.842	     1.41334e+07	
       924.982	     1.21271e+07	
       925.122	     9.95436e+06	
       925.262	     7.41614e+06	
       925.322	     6.21847e+06	
       925.403	     4.42886e+06	
       925.484	     3.60906e+06	
       925.646	     6.23754e+06	
       925.808	     9.38227e+06	
       925.970	     1.20429e+07	
       926.132	     1.44966e+07	
       926.220	     1.57202e+07	
       926.295	     1.67040e+07	
       926.369	     1.76905e+07	
       926.517	     1.94928e+07	
       926.665	     2.10599e+07	
       926.813	     2.24081e+07	
       926.961	     2.35328e+07	
       927.109	     2.44342e+07	
       927.257	     2.51536e+07	
       927.406	     2.56966e+07	
       927.554	     2.60622e+07	
       927.702	     2.62713e+07	
       927.850	     2.63236e+07	
       927.998	     2.62120e+07	
       928.038	     2.61462e+07	
       928.110	     2.59623e+07	
       928.146	     2.58498e+07	
       928.182	     2.57232e+07	
       928.327	     2.50687e+07	
       928.471	     2.42097e+07	
       928.615	     2.31089e+07	
       928.717	     2.21913e+07	
       928.759	     2.17764e+07	
       928.903	     2.04219e+07	
       928.917	     2.02788e+07	
       929.089	     1.84044e+07	
       929.261	     1.62194e+07	
       929.325	     1.53750e+07	
       929.434	     1.38006e+07	
       929.543	     1.21376e+07	
       929.652	     1.03295e+07	
       929.719	     9.10977e+06	
       929.753	     8.45525e+06	
       929.755	     8.41501e+06	
       929.761	     8.29327e+06	
       929.769	     8.12959e+06	
       929.819	     7.07719e+06	
       929.827	     6.90070e+06	
       929.883	     5.60093e+06	
       929.910	     4.92222e+06	
       929.939	     4.21988e+06	
       929.954	     3.96548e+06	
       929.968	     3.79913e+06	
       929.982	     3.71333e+06	
       929.996	     3.67736e+06	
       930.010	     3.66652e+06	
       930.024	     3.67837e+06	
       930.038	     3.71537e+06	
       930.052	     3.80227e+06	
       930.081	     4.22572e+06	
       930.137	     5.61434e+06	
       930.201	     7.10201e+06	
       930.247	     8.08153e+06	
       930.249	     8.12334e+06	
       930.251	     8.16516e+06	
       930.301	     9.15765e+06	
       930.326	     9.60545e+06	
       930.402	     1.09784e+07	
       930.478	     1.22420e+07	
       930.630	     1.46144e+07	
       930.633	     1.46598e+07	
       930.782	     1.67892e+07	
       930.931	     1.88136e+07	
       931.080	     2.06367e+07	
       931.229	     2.23428e+07	
       931.379	     2.40876e+07	
       931.516	     2.56019e+07	
       931.528	     2.57306e+07	
       931.677	     2.72304e+07	
       931.838	     2.87381e+07	
       931.999	     3.00884e+07	
       932.160	     3.11872e+07	
       932.321	     3.21793e+07	
       932.483	     3.30546e+07	
       932.644	     3.38309e+07	
       932.805	     3.44557e+07	
       932.966	     3.49436e+07	
       933.127	     3.53407e+07	
       933.173	     3.54372e+07	
       933.265	     3.56068e+07	
       933.288	     3.56442e+07	
       933.403	     3.57994e+07	
       933.432	     3.58267e+07	
       933.542	     3.58990e+07	
       933.652	     3.59156e+07	
       933.762	     3.58716e+07	
       933.872	     3.57667e+07	
       933.982	     3.55823e+07	
       934.092	     3.53099e+07	
       934.202	     3.49603e+07	
       934.312	     3.45321e+07	
       934.413	     3.40875e+07	
       934.422	     3.40480e+07	
       934.533	     3.35233e+07	
       934.652	     3.28717e+07	
       934.771	     3.21328e+07	
       934.890	     3.13192e+07	
       935.009	     3.04120e+07	
       935.026	     3.02742e+07	
       935.128	     2.94569e+07	
       935.230	     2.86692e+07	
       935.332	     2.78359e+07	
       935.434	     2.69731e+07	
       935.537	     2.60708e+07	
       935.639	     2.51208e+07	
       935.741	     2.41279e+07	
       935.843	     2.30748e+07	
       935.945	     2.19464e+07	
       935.950	     2.18891e+07	
       936.047	     2.07503e+07	
       936.144	     1.95443e+07	
       936.338	     1.69529e+07	
       936.464	     1.51247e+07	
       936.532	     1.40673e+07	
       936.601	     1.29569e+07	
       936.645	     1.22117e+07	
       936.714	     1.09823e+07	
       936.737	     1.05515e+07	
       936.829	     8.72719e+06	
       936.887	     7.39917e+06	
       936.944	     5.94100e+06	
       936.973	     5.11354e+06	
       937.001	     4.34605e+06	
       937.015	     4.10543e+06	
       937.029	     3.95882e+06	
       937.043	     3.90114e+06	
       937.058	     3.88090e+06	
       937.072	     3.87673e+06	
       937.086	     3.88194e+06	
       937.101	     3.90330e+06	
       937.115	     3.96211e+06	
       937.143	     4.35195e+06	
       937.150	     4.51522e+06	
       937.186	     5.56096e+06	
       937.199	     5.92806e+06	
       937.250	     7.25387e+06	
       937.314	     8.74302e+06	
       937.341	     9.31746e+06	
       937.442	     1.12737e+07	
       937.543	     1.30602e+07	
       937.645	     1.47274e+07	
       937.746	     1.62862e+07	
       937.847	     1.77426e+07	
       937.896	     1.84351e+07	
       937.948	     1.91569e+07	
       938.000	     1.98577e+07	
       938.104	     2.12146e+07	
       938.208	     2.25055e+07	
       938.312	     2.37358e+07	
       938.416	     2.48996e+07	
       938.520	     2.60174e+07	
       938.543	     2.62606e+07	
       938.556	     2.63984e+07	
       938.624	     2.71096e+07	
       938.729	     2.81676e+07	
       938.914	     3.00234e+07	
       939.271	     3.37222e+07	
       939.628	     3.73033e+07	
       939.986	     4.08457e+07	
       940.164	     4.25818e+07	
       940.343	     4.41928e+07	
       940.521	     4.57215e+07	
       940.580	     4.62075e+07	
       940.660	     4.68600e+07	
       940.700	     4.71808e+07	
       940.740	     4.74955e+07	
       940.901	     4.86187e+07	
       941.061	     4.96758e+07	
       941.221	     5.06673e+07	
       941.381	     5.15746e+07	
       941.541	     5.23521e+07	
       941.701	     5.30791e+07	
       942.022	     5.43844e+07	
       942.182	     5.49600e+07	
       942.342	     5.54651e+07	
       942.502	     5.58952e+07	
       942.662	     5.62590e+07	
       942.917	     5.66919e+07	
       942.982	     5.67727e+07	
       943.048	     5.68402e+07	
       943.178	     5.69395e+07	
       943.308	     5.69480e+07	
       943.438	     5.68754e+07	
       943.568	     5.67315e+07	
       943.698	     5.65141e+07	
       943.828	     5.62201e+07	
       943.958	     5.58493e+07	
       944.088	     5.53904e+07	
       944.219	     5.48312e+07	
       944.349	     5.41862e+07	
       944.479	     5.34583e+07	
       944.609	     5.26481e+07	
       944.691	     5.20967e+07	
       944.739	     5.17599e+07	
       944.845	     5.10477e+07	
       944.999	     4.99532e+07	
       945.153	     4.87783e+07	
       945.308	     4.75304e+07	
       945.616	     4.49644e+07	
       945.924	     4.21963e+07	
       946.232	     3.94791e+07	
       946.540	     3.68493e+07	
       946.849	     3.41896e+07	
       947.004	     3.28218e+07	
       947.158	     3.14181e+07	
       947.312	     2.99703e+07	
       947.468	     2.84600e+07	
       947.471	     2.84300e+07	
       947.622	     2.68745e+07	
       947.624	     2.68587e+07	
       947.777	     2.51921e+07	
       947.930	     2.33677e+07	
       948.033	     2.20550e+07	
       948.083	     2.13899e+07	
       948.133	     2.07072e+07	
       948.233	     1.92839e+07	
       948.333	     1.78097e+07	
       948.433	     1.62224e+07	
       948.495	     1.51824e+07	
       948.521	     1.47296e+07	
       948.534	     1.45178e+07	
       948.546	     1.43050e+07	
       948.596	     1.33959e+07	
       948.615	     1.30416e+07	
       948.661	     1.21542e+07	
       948.696	     1.14516e+07	
       948.777	     9.71494e+06	
       948.835	     8.26019e+06	
       948.893	     6.58110e+06	
       948.922	     5.61060e+06	
       948.951	     4.68804e+06	
       948.966	     4.45289e+06	
       948.980	     4.35817e+06	
       948.994	     4.33414e+06	
       949.009	     4.32886e+06	
       949.023	     4.32858e+06	
       949.037	     4.33003e+06	
       949.052	     4.33653e+06	
       949.066	     4.36169e+06	
       949.095	     4.69432e+06	
       949.153	     6.59640e+06	
       949.230	     8.78408e+06	
       949.258	     9.49873e+06	
       949.269	     9.75571e+06	
       949.280	     1.00088e+07	
       949.330	     1.10960e+07	
       949.360	     1.17193e+07	
       949.430	     1.31099e+07	
       949.500	     1.44160e+07	
       949.640	     1.68419e+07	
       949.781	     1.90469e+07	
       949.795	     1.92560e+07	
       949.879	     2.05032e+07	
       949.921	     2.11080e+07	
       949.963	     2.17017e+07	
       950.131	     2.39552e+07	
       950.299	     2.60277e+07	
       950.467	     2.79372e+07	
       950.635	     2.97498e+07	
       950.719	     3.06294e+07	
       950.804	     3.14923e+07	
       950.888	     3.23449e+07	
       951.056	     3.40234e+07	
       951.392	     3.73253e+07	
       951.560	     3.89843e+07	
       951.728	     4.06557e+07	
       951.896	     4.24878e+07	
       952.065	     4.43477e+07	
       952.233	     4.62942e+07	
       952.401	     4.83419e+07	
       952.688	     5.18608e+07	
       952.737	     5.25026e+07	
       952.788	     5.31749e+07	
       952.888	     5.45091e+07	
       953.089	     5.72295e+07	
       953.289	     6.00242e+07	
       953.489	     6.31045e+07	
       953.689	     6.62443e+07	
       953.889	     6.94349e+07	
       954.290	     7.57570e+07	
       954.490	     7.88901e+07	
       954.690	     8.20044e+07	
       954.890	     8.49678e+07	
       955.090	     8.76156e+07	
       955.290	     9.02168e+07	
       955.491	     9.27693e+07	
       955.768	     9.62304e+07	
       955.891	     9.76709e+07	
       956.014	     9.90783e+07	
       956.260	     1.01886e+08	
       956.753	     1.07315e+08	
       957.245	     1.12468e+08	
       957.738	     1.17288e+08	
       958.156	     1.21082e+08	
       958.230	     1.21722e+08	
       958.439	     1.23495e+08	
       958.722	     1.25759e+08	
       959.006	     1.27849e+08	
       959.289	     1.29751e+08	
       959.572	     1.31527e+08	
       959.855	     1.33084e+08	
       960.139	     1.34415e+08	
       960.380	     1.35343e+08	
       960.414	     1.35459e+08	
       960.422	     1.35485e+08	
       960.430	     1.35512e+08	
       960.480	     1.35719e+08	
       960.580	     1.36106e+08	
       960.780	     1.36770e+08	
       961.180	     1.37609e+08	
       961.381	     1.37786e+08	
       961.581	     1.37784e+08	
       961.781	     1.37607e+08	
       961.981	     1.37256e+08	
       962.181	     1.36723e+08	
       962.381	     1.35998e+08	
       962.582	     1.35097e+08	
       962.782	     1.34018e+08	
       962.982	     1.32716e+08	
       963.182	     1.31244e+08	
       963.382	     1.29608e+08	
       963.582	     1.27789e+08	
       963.735	     1.26306e+08	
       963.983	     1.23708e+08	
       964.231	     1.20845e+08	
       964.479	     1.17817e+08	
       964.727	     1.14609e+08	
       964.976	     1.11198e+08	
       965.224	     1.07676e+08	
       965.472	     1.04018e+08	
       965.968	     9.64491e+07	
       966.465	     8.87811e+07	
       966.883	     8.23798e+07	
       967.170	     7.80755e+07	
       967.458	     7.38925e+07	
       967.745	     6.98257e+07	
       968.032	     6.59144e+07	
       968.319	     6.20926e+07	
       968.606	     5.84305e+07	
       968.894	     5.48799e+07	
       969.065	     5.28092e+07	
       969.132	     5.20031e+07	
       969.181	     5.14166e+07	
       969.297	     5.00336e+07	
       969.529	     4.72624e+07	
       969.727	     4.48946e+07	
       969.927	     4.24995e+07	
       970.126	     4.00462e+07	
       970.324	     3.75116e+07	
       970.523	     3.48478e+07	
       970.568	     3.42132e+07	
       970.721	     3.19685e+07	
       970.874	     2.95562e+07	
       971.027	     2.69163e+07	
       971.181	     2.39619e+07	
       971.292	     2.15631e+07	
       971.320	     2.09143e+07	
       971.334	     2.05835e+07	
       971.348	     2.02477e+07	
       971.404	     1.88636e+07	
       971.447	     1.77441e+07	
       971.467	     1.72062e+07	
       971.516	     1.58436e+07	
       971.585	     1.37887e+07	
       971.644	     1.18941e+07	
       971.703	     9.84990e+06	
       971.732	     8.77475e+06	
       971.762	     7.59433e+06	
       971.778	     6.93309e+06	
       971.792	     6.34086e+06	
       971.806	     5.78267e+06	
       971.821	     5.37197e+06	
       971.827	     5.32820e+06	
       971.833	     5.32632e+06	
       971.836	     5.32648e+06	
       971.839	     5.32660e+06	
       971.851	     5.32933e+06	
       971.866	     5.58390e+06	
       971.880	     6.09667e+06	
       971.910	     7.35796e+06	
       971.969	     9.65060e+06	
       972.037	     1.20301e+07	
       972.087	     1.36530e+07	
       972.137	     1.51797e+07	
       972.150	     1.55656e+07	
       972.237	     1.79935e+07	
       972.324	     2.02090e+07	
       972.499	     2.40915e+07	
       972.548	     2.50701e+07	
       972.673	     2.73734e+07	
       972.798	     2.94582e+07	
       972.923	     3.13503e+07	
       973.048	     3.30926e+07	
       973.173	     3.47137e+07	
       973.298	     3.62326e+07	
       973.423	     3.76916e+07	
       973.548	     3.90899e+07	
       973.601	     3.96695e+07	
       973.673	     4.04417e+07	
       973.746	     4.12042e+07	
       973.890	     4.27090e+07	
       974.178	     4.55905e+07	
       974.445	     4.82332e+07	
       974.466	     4.84443e+07	
       975.043	     5.40885e+07	
       975.640	     5.98982e+07	
       975.939	     6.28623e+07	
       976.237	     6.58258e+07	
       976.387	     6.73868e+07	
       976.537	     6.90154e+07	
       976.686	     7.07311e+07	
       976.835	     7.25541e+07	
       976.984	     7.44988e+07	
       977.134	     7.65886e+07	
       977.432	     8.08652e+07	
       977.582	     8.29641e+07	
       977.732	     8.52031e+07	
       977.881	     8.76049e+07	
       978.030	     9.00198e+07	
       978.179	     9.23666e+07	
       978.329	     9.48654e+07	
       978.478	     9.75364e+07	
       978.627	     1.00406e+08	
       978.776	     1.03557e+08	
       978.927	     1.06992e+08	
       979.076	     1.10759e+08	
       979.145	     1.12639e+08	
       979.225	     1.14925e+08	
       979.305	     1.17349e+08	
       979.465	     1.21718e+08	
       979.625	     1.26529e+08	
       979.785	     1.31870e+08	
       979.945	     1.37849e+08	
       980.105	     1.42703e+08	
       980.266	     1.47462e+08	
       980.426	     1.52555e+08	
       980.586	     1.58015e+08	
       980.746	     1.62974e+08	
       980.906	     1.67435e+08	
       981.226	     1.76877e+08	
       981.867	     1.96273e+08	
       982.507	     2.15774e+08	
       982.827	     2.25842e+08	
       983.148	     2.36217e+08	
       983.468	     2.47187e+08	
