# Koester WD models
# teff = 20000 K (value for the effective temperature for the model. Temperatures are given in K)
# logg = 9 log(cm/s2) (value for Log(G) for the model.)
#
#   WAVELENGTH	#           FLUX	
#   (ANGSTROM)	#  (ERG/CM2/S/A)	
##############	################	
       899.230	     1.19269e+07	
       904.235	     1.24054e+07	
       908.450	     1.28176e+07	
       909.241	     1.28958e+07	
       910.032	     1.29742e+07	
       911.193	     1.30893e+07	
       911.613	     1.31307e+07	
       911.824	     1.31513e+07	
       911.929	     1.31615e+07	
       912.034	     1.31717e+07	
       912.139	     1.32457e+07	
       912.244	     1.33191e+07	
       912.349	     1.33916e+07	
       912.454	     1.34632e+07	
       912.559	     1.35339e+07	
       912.664	     1.36035e+07	
       912.770	     1.36719e+07	
       912.875	     1.37386e+07	
       912.886	     1.37454e+07	
       913.037	     1.38363e+07	
       913.085	     1.38641e+07	
       913.241	     1.39504e+07	
       913.284	     1.39725e+07	
       913.531	     1.40889e+07	
       913.822	     1.41931e+07	
       914.059	     1.42271e+07	
       914.112	     1.42380e+07	
       914.165	     1.42470e+07	
       914.271	     1.42581e+07	
       914.377	     1.42436e+07	
       914.391	     1.42357e+07	
       914.483	     1.41998e+07	
       914.575	     1.41824e+07	
       914.760	     1.42349e+07	
       914.817	     1.42091e+07	
       914.944	     1.40311e+07	
       915.071	     1.38913e+07	
       915.198	     1.40459e+07	
       915.325	     1.41691e+07	
       915.452	     1.39551e+07	
       915.516	     1.37120e+07	
       915.580	     1.34517e+07	
       915.609	     1.33428e+07	
       915.643	     1.32602e+07	
       915.677	     1.32707e+07	
       915.745	     1.34823e+07	
       915.881	     1.42449e+07	
       916.017	     1.46716e+07	
       916.153	     1.44237e+07	
       916.289	     1.35076e+07	
       916.379	     1.28802e+07	
       916.421	     1.27781e+07	
       916.425	     1.27787e+07	
       916.429	     1.27814e+07	
       916.479	     1.29749e+07	
       916.580	     1.39066e+07	
       916.680	     1.49137e+07	
       916.780	     1.55904e+07	
       916.880	     1.58359e+07	
       916.980	     1.56050e+07	
       917.080	     1.48622e+07	
       917.180	     1.36650e+07	
       917.182	     1.36405e+07	
       917.280	     1.22445e+07	
       917.378	     1.14962e+07	
       917.575	     1.39636e+07	
       917.771	     1.65907e+07	
       917.967	     1.75807e+07	
       918.163	     1.65440e+07	
       918.359	     1.36994e+07	
       918.510	     1.08581e+07	
       918.556	     1.01823e+07	
       918.602	     9.91766e+06	
       918.694	     1.09053e+07	
       918.878	     1.46674e+07	
       919.062	     1.77942e+07	
       919.201	     1.94082e+07	
       919.241	     1.97131e+07	
       919.246	     1.97454e+07	
       919.251	     1.97765e+07	
       919.301	     2.00311e+07	
       919.402	     2.01908e+07	
       919.502	     1.99542e+07	
       919.602	     1.92306e+07	
       919.702	     1.79604e+07	
       919.802	     1.64938e+07	
       919.902	     1.45886e+07	
       920.002	     1.25209e+07	
       920.102	     1.02509e+07	
       920.165	     9.01332e+06	
       920.189	     8.72502e+06	
       920.202	     8.64695e+06	
       920.215	     8.61965e+06	
       920.265	     9.02319e+06	
       920.366	     1.11482e+07	
       920.466	     1.34584e+07	
       920.566	     1.56194e+07	
       920.666	     1.76647e+07	
       920.766	     1.95472e+07	
       920.866	     2.12555e+07	
       920.966	     2.25832e+07	
       921.066	     2.36096e+07	
       921.166	     2.42829e+07	
       921.266	     2.45645e+07	
       921.367	     2.45293e+07	
       921.467	     2.41539e+07	
       921.567	     2.33481e+07	
       921.667	     2.21903e+07	
       921.767	     2.07569e+07	
       921.867	     1.89645e+07	
       921.967	     1.70575e+07	
       922.067	     1.49475e+07	
       922.167	     1.26784e+07	
       922.267	     1.02294e+07	
       922.331	     8.65524e+06	
       922.368	     7.99994e+06	
       922.405	     7.77064e+06	
       922.479	     8.66721e+06	
       922.627	     1.23882e+07	
       922.670	     1.34566e+07	
       922.740	     1.50382e+07	
       922.775	     1.58486e+07	
       922.810	     1.66459e+07	
       922.950	     1.96324e+07	
       923.090	     2.25061e+07	
       923.230	     2.50995e+07	
       923.371	     2.73267e+07	
       923.511	     2.90184e+07	
       923.651	     3.03194e+07	
       923.791	     3.10831e+07	
       923.931	     3.13924e+07	
       924.071	     3.12382e+07	
       924.211	     3.05643e+07	
       924.352	     2.93418e+07	
       924.492	     2.76767e+07	
       924.632	     2.55407e+07	
       924.772	     2.30044e+07	
       924.912	     2.02370e+07	
       925.052	     1.72144e+07	
       925.192	     1.39814e+07	
       925.333	     1.03283e+07	
       925.434	     7.73938e+06	
       925.462	     7.38425e+06	
       925.473	     7.32104e+06	
       925.484	     7.30241e+06	
       925.534	     7.74644e+06	
       925.634	     1.03247e+07	
       925.734	     1.30478e+07	
       925.834	     1.54688e+07	
       925.934	     1.77991e+07	
       926.034	     2.00623e+07	
       926.134	     2.22661e+07	
       926.232	     2.43274e+07	
       926.234	     2.43687e+07	
       926.301	     2.57500e+07	
       926.335	     2.64723e+07	
       926.369	     2.71712e+07	
       926.505	     2.97469e+07	
       926.641	     3.21715e+07	
       926.777	     3.44014e+07	
       926.913	     3.62932e+07	
       927.049	     3.78801e+07	
       927.185	     3.91885e+07	
       927.322	     4.01838e+07	
       927.458	     4.09205e+07	
       927.594	     4.13961e+07	
       927.730	     4.16424e+07	
       927.866	     4.16453e+07	
       928.002	     4.13877e+07	
       928.006	     4.13757e+07	
       928.094	     4.10182e+07	
       928.138	     4.07829e+07	
       928.182	     4.05112e+07	
       928.359	     3.90754e+07	
       928.535	     3.71509e+07	
       928.711	     3.46725e+07	
       928.887	     3.17816e+07	
       928.985	     3.00809e+07	
       929.037	     2.91549e+07	
       929.063	     2.86743e+07	
       929.089	     2.81832e+07	
       929.125	     2.74840e+07	
       929.193	     2.61064e+07	
       929.261	     2.47111e+07	
       929.398	     2.18655e+07	
       929.493	     1.97449e+07	
       929.525	     1.90146e+07	
       929.534	     1.88123e+07	
       929.543	     1.86072e+07	
       929.593	     1.74475e+07	
       929.617	     1.68814e+07	
       929.655	     1.59560e+07	
       929.693	     1.49880e+07	
       929.769	     1.30692e+07	
       929.827	     1.14321e+07	
       929.883	     9.71845e+06	
       929.910	     8.87123e+06	
       929.939	     8.01936e+06	
       929.954	     7.69678e+06	
       929.968	     7.44243e+06	
       929.982	     7.30282e+06	
       929.996	     7.22676e+06	
       930.010	     7.20182e+06	
       930.024	     7.22862e+06	
       930.038	     7.30656e+06	
       930.052	     7.44812e+06	
       930.081	     8.02966e+06	
       930.137	     9.74026e+06	
       930.201	     1.17006e+07	
       930.247	     1.30129e+07	
       930.249	     1.30685e+07	
       930.251	     1.31234e+07	
       930.301	     1.44340e+07	
       930.326	     1.50172e+07	
       930.402	     1.69474e+07	
       930.478	     1.87603e+07	
       930.630	     2.22726e+07	
       930.633	     2.23392e+07	
       930.782	     2.55831e+07	
       930.931	     2.88009e+07	
       931.080	     3.17558e+07	
       931.229	     3.47218e+07	
       931.379	     3.76407e+07	
       931.528	     4.03315e+07	
       931.677	     4.28073e+07	
       931.788	     4.45827e+07	
       931.814	     4.49876e+07	
       931.826	     4.51720e+07	
       931.838	     4.53545e+07	
       931.888	     4.60963e+07	
       931.988	     4.74996e+07	
       932.188	     4.98985e+07	
       932.389	     5.19582e+07	
       932.589	     5.37043e+07	
       932.789	     5.51029e+07	
       932.989	     5.61453e+07	
       933.189	     5.69486e+07	
       933.347	     5.74095e+07	
       933.375	     5.74745e+07	
       933.377	     5.74789e+07	
       933.389	     5.75050e+07	
       933.403	     5.75342e+07	
       933.432	     5.75797e+07	
       933.460	     5.76184e+07	
       933.542	     5.76957e+07	
       933.652	     5.77139e+07	
       933.762	     5.76200e+07	
       933.872	     5.74176e+07	
       933.982	     5.70915e+07	
       934.092	     5.66316e+07	
       934.202	     5.60422e+07	
       934.312	     5.53178e+07	
       934.413	     5.45641e+07	
       934.422	     5.44966e+07	
       934.533	     5.36015e+07	
       934.652	     5.24938e+07	
       934.771	     5.12538e+07	
       934.890	     4.99567e+07	
       935.009	     4.85090e+07	
       935.026	     4.82891e+07	
       935.128	     4.69470e+07	
       935.230	     4.55798e+07	
       935.332	     4.41202e+07	
       935.434	     4.26144e+07	
       935.537	     4.10468e+07	
       935.639	     3.93997e+07	
       935.741	     3.76825e+07	
       935.843	     3.58607e+07	
       935.945	     3.39279e+07	
       935.950	     3.38306e+07	
       936.047	     3.19346e+07	
       936.144	     2.99684e+07	
       936.338	     2.58050e+07	
       936.464	     2.29971e+07	
       936.532	     2.14092e+07	
       936.601	     1.97712e+07	
       936.645	     1.86842e+07	
       936.714	     1.69480e+07	
       936.737	     1.63401e+07	
       936.829	     1.38694e+07	
       936.887	     1.20889e+07	
       936.944	     1.01515e+07	
       936.973	     9.11832e+06	
       937.001	     8.18611e+06	
       937.015	     7.87227e+06	
       937.029	     7.63548e+06	
       937.043	     7.52603e+06	
       937.058	     7.47071e+06	
       937.072	     7.45594e+06	
       937.086	     7.47259e+06	
       937.101	     7.52996e+06	
       937.115	     7.64139e+06	
       937.143	     8.19648e+06	
       937.150	     8.42349e+06	
       937.186	     9.67768e+06	
       937.199	     1.01395e+07	
       937.250	     1.19011e+07	
       937.314	     1.38972e+07	
       937.341	     1.46617e+07	
       937.442	     1.73626e+07	
       937.543	     1.99213e+07	
       937.645	     2.23913e+07	
       937.694	     2.35485e+07	
       937.746	     2.47391e+07	
       937.847	     2.70361e+07	
       938.000	     3.04356e+07	
       938.153	     3.36518e+07	
       938.306	     3.67786e+07	
       938.459	     3.97041e+07	
       938.612	     4.24875e+07	
       938.617	     4.25767e+07	
       938.766	     4.51613e+07	
       938.914	     4.77349e+07	
       939.149	     5.17232e+07	
       939.210	     5.27486e+07	
       939.271	     5.37486e+07	
       939.393	     5.56998e+07	
       939.637	     5.97141e+07	
       939.882	     6.36675e+07	
       940.126	     6.75116e+07	
       940.370	     7.10324e+07	
       940.488	     7.26236e+07	
       940.614	     7.42531e+07	
       940.740	     7.57988e+07	
       940.867	     7.70780e+07	
       940.993	     7.82960e+07	
       941.245	     8.05545e+07	
       941.497	     8.25108e+07	
       941.749	     8.42299e+07	
       942.002	     8.57639e+07	
       942.254	     8.70953e+07	
       942.506	     8.81870e+07	
       942.758	     8.90550e+07	
       942.899	     8.94371e+07	
       942.973	     8.96083e+07	
       943.011	     8.96856e+07	
       943.048	     8.97569e+07	
       943.196	     8.99802e+07	
       943.344	     9.00154e+07	
       943.492	     8.99136e+07	
       943.640	     8.96808e+07	
       943.788	     8.93098e+07	
       943.936	     8.87949e+07	
       944.084	     8.81107e+07	
       944.233	     8.72213e+07	
       944.381	     8.61641e+07	
       944.529	     8.49374e+07	
       944.677	     8.35453e+07	
       944.825	     8.20386e+07	
       944.973	     8.04314e+07	
       945.121	     7.86922e+07	
       945.155	     7.82759e+07	
       945.232	     7.73218e+07	
       945.270	     7.68339e+07	
       945.308	     7.63376e+07	
       945.460	     7.44146e+07	
       945.764	     7.03842e+07	
       946.068	     6.60975e+07	
       946.195	     6.42456e+07	
       946.373	     6.16283e+07	
       946.677	     5.72084e+07	
       946.918	     5.36710e+07	
       947.158	     4.99466e+07	
       947.278	     4.79973e+07	
       947.398	     4.59788e+07	
       947.520	     4.38837e+07	
       947.640	     4.17090e+07	
       947.678	     4.10016e+07	
       947.760	     3.94383e+07	
       947.779	     3.90679e+07	
       947.880	     3.70365e+07	
       947.982	     3.49320e+07	
       948.083	     3.27461e+07	
       948.184	     3.04756e+07	
       948.286	     2.81340e+07	
       948.387	     2.57323e+07	
       948.431	     2.46498e+07	
       948.488	     2.32222e+07	
       948.546	     2.17593e+07	
       948.660	     1.87143e+07	
       948.727	     1.68119e+07	
       948.761	     1.58115e+07	
       948.771	     1.55089e+07	
       948.774	     1.54167e+07	
       948.777	     1.53247e+07	
       948.827	     1.36441e+07	
       948.835	     1.33625e+07	
       948.893	     1.11173e+07	
       948.922	     9.90513e+06	
       948.951	     8.78590e+06	
       948.966	     8.46216e+06	
       948.980	     8.28422e+06	
       948.994	     8.22601e+06	
       949.009	     8.20292e+06	
       949.023	     8.19865e+06	
       949.037	     8.20493e+06	
       949.052	     8.23016e+06	
       949.066	     8.29044e+06	
       949.095	     8.79687e+06	
       949.153	     1.11416e+07	
       949.230	     1.40815e+07	
       949.258	     1.50444e+07	
       949.269	     1.53854e+07	
       949.280	     1.57240e+07	
       949.330	     1.72150e+07	
       949.360	     1.80782e+07	
       949.430	     2.00335e+07	
       949.500	     2.19190e+07	
       949.640	     2.55247e+07	
       949.781	     2.89334e+07	
       949.795	     2.92659e+07	
       949.879	     3.12580e+07	
       949.921	     3.22346e+07	
       949.963	     3.31978e+07	
       950.131	     3.69143e+07	
       950.299	     4.04358e+07	
       950.467	     4.37357e+07	
       950.635	     4.68876e+07	
       950.719	     4.84173e+07	
       950.804	     4.99146e+07	
       950.888	     5.13867e+07	
       951.056	     5.42632e+07	
       951.392	     5.98514e+07	
       951.560	     6.26895e+07	
       951.728	     6.55349e+07	
       951.896	     6.85615e+07	
       952.065	     7.15799e+07	
       952.233	     7.46442e+07	
       952.401	     7.77817e+07	
       952.688	     8.31624e+07	
       952.737	     8.41752e+07	
       952.788	     8.52346e+07	
       952.888	     8.73237e+07	
       953.089	     9.15561e+07	
       953.489	     1.00358e+08	
       953.689	     1.04889e+08	
       953.889	     1.09423e+08	
       954.089	     1.13806e+08	
       954.290	     1.17934e+08	
       954.490	     1.21971e+08	
       954.690	     1.25916e+08	
       954.890	     1.29622e+08	
       954.967	     1.30905e+08	
       955.090	     1.32934e+08	
       955.491	     1.39346e+08	
       956.014	     1.47233e+08	
       956.537	     1.54597e+08	
       957.061	     1.61515e+08	
       957.584	     1.67980e+08	
       958.108	     1.73887e+08	
       958.631	     1.79239e+08	
       959.021	     1.82799e+08	
       959.155	     1.83933e+08	
       959.289	     1.85018e+08	
       959.557	     1.87065e+08	
       959.757	     1.88447e+08	
       960.093	     1.90490e+08	
       960.430	     1.92135e+08	
       960.766	     1.93516e+08	
       961.102	     1.94434e+08	
       961.439	     1.94880e+08	
       961.775	     1.94810e+08	
       962.111	     1.94225e+08	
       962.447	     1.93065e+08	
       962.784	     1.91346e+08	
       963.120	     1.88982e+08	
       963.456	     1.86063e+08	
       963.793	     1.82561e+08	
       964.027	     1.79818e+08	
       964.129	     1.78523e+08	
       964.231	     1.77164e+08	
       964.435	     1.74352e+08	
       964.843	     1.68179e+08	
       965.252	     1.61339e+08	
       965.660	     1.53862e+08	
       966.068	     1.45980e+08	
       966.477	     1.37752e+08	
       966.885	     1.29321e+08	
       967.371	     1.19214e+08	
       967.702	     1.12364e+08	
       968.032	     1.05635e+08	
       968.088	     1.04481e+08	
       968.693	     9.23578e+07	
       969.297	     8.04951e+07	
       969.826	     6.99526e+07	
       969.876	     6.89297e+07	
       969.902	     6.84170e+07	
       969.927	     6.79027e+07	
       970.027	     6.58189e+07	
       970.227	     6.15246e+07	
       970.427	     5.70143e+07	
       970.627	     5.22051e+07	
       970.686	     5.06912e+07	
       970.780	     4.82049e+07	
       970.827	     4.69263e+07	
       970.874	     4.56210e+07	
       971.062	     4.00965e+07	
       971.154	     3.72131e+07	
       971.251	     3.39691e+07	
       971.348	     3.05205e+07	
       971.499	     2.47149e+07	
       971.542	     2.29608e+07	
       971.585	     2.11525e+07	
       971.639	     1.88024e+07	
       971.644	     1.85775e+07	
       971.671	     1.73488e+07	
       971.703	     1.58250e+07	
       971.732	     1.43628e+07	
       971.762	     1.27608e+07	
       971.778	     1.18706e+07	
       971.792	     1.10994e+07	
       971.806	     1.04068e+07	
       971.821	     9.95690e+06	
       971.827	     9.92193e+06	
       971.833	     9.92150e+06	
       971.836	     9.92175e+06	
       971.839	     9.92197e+06	
       971.851	     9.92388e+06	
       971.866	     1.01761e+07	
       971.880	     1.07951e+07	
       971.910	     1.24444e+07	
       971.969	     1.55613e+07	
       972.037	     1.87671e+07	
       972.087	     2.09706e+07	
       972.137	     2.30943e+07	
       972.150	     2.36351e+07	
       972.237	     2.71371e+07	
       972.324	     3.04480e+07	
       972.499	     3.64993e+07	
       972.548	     3.80708e+07	
       972.673	     4.18589e+07	
       972.798	     4.53511e+07	
       972.923	     4.85791e+07	
       973.048	     5.15689e+07	
       973.173	     5.43521e+07	
       973.298	     5.69615e+07	
       973.423	     5.94631e+07	
       973.548	     6.18539e+07	
       973.601	     6.28391e+07	
       973.673	     6.41573e+07	
       973.746	     6.54529e+07	
       973.890	     6.79973e+07	
       974.178	     7.28391e+07	
       974.466	     7.76011e+07	
       975.043	     8.69024e+07	
       975.556	     9.50369e+07	
       975.598	     9.56803e+07	
       975.619	     9.60036e+07	
       975.640	     9.63275e+07	
       975.724	     9.76335e+07	
       975.892	     1.00304e+08	
       976.228	     1.05602e+08	
       976.397	     1.08354e+08	
       976.565	     1.11231e+08	
       976.733	     1.14258e+08	
       976.901	     1.17476e+08	
       977.069	     1.20921e+08	
       977.237	     1.24639e+08	
       977.405	     1.28161e+08	
       977.574	     1.31634e+08	
       977.742	     1.35329e+08	
       977.910	     1.39295e+08	
       978.078	     1.43128e+08	
       978.246	     1.46984e+08	
       978.414	     1.51092e+08	
       978.582	     1.55491e+08	
       978.750	     1.60277e+08	
       978.919	     1.65504e+08	
       979.087	     1.71231e+08	
       979.105	     1.71877e+08	
       979.205	     1.75601e+08	
       979.255	     1.77549e+08	
       979.305	     1.79563e+08	
       979.505	     1.86794e+08	
       979.705	     1.94827e+08	
       979.905	     2.03859e+08	
       980.105	     2.11839e+08	
       980.306	     2.19214e+08	
       980.506	     2.27132e+08	
       980.706	     2.35095e+08	
       980.906	     2.41703e+08	
       981.106	     2.48551e+08	
       981.506	     2.62455e+08	
       982.307	     2.90108e+08	
       982.707	     3.03814e+08	
       983.108	     3.17804e+08	
       983.508	     3.32528e+08	
       983.863	     3.46499e+08	
       983.893	     3.47711e+08	
       983.908	     3.48318e+08	
       983.923	     3.48927e+08	
       983.983	     3.51463e+08	
       984.103	     3.56301e+08	
       984.344	     3.65647e+08	
       984.824	     3.84600e+08	
       984.951	     3.89325e+08	
       985.785	     4.21253e+08	
