# Koester WD models
# teff = 21000 K (value for the effective temperature for the model. Temperatures are given in K)
# logg = 8.25 log(cm/s2) (value for Log(G) for the model.)
#
#   WAVELENGTH	#           FLUX	
#   (ANGSTROM)	#  (ERG/CM2/S/A)	
##############	################	
       899.230	     2.07219e+07	
       904.235	     2.14916e+07	
       908.450	     2.21529e+07	
       909.241	     2.22782e+07	
       910.032	     2.24036e+07	
       911.193	     2.25880e+07	
       911.613	     2.26543e+07	
       911.824	     2.26871e+07	
       911.929	     2.27033e+07	
       912.034	     2.27195e+07	
       912.139	     2.29260e+07	
       912.244	     2.31298e+07	
       912.349	     2.33303e+07	
       912.454	     2.35279e+07	
       912.559	     2.37225e+07	
       912.664	     2.39136e+07	
       912.770	     2.41005e+07	
       912.875	     2.42810e+07	
       912.886	     2.42994e+07	
       913.085	     2.46003e+07	
       913.284	     2.48328e+07	
       913.433	     2.49638e+07	
       913.445	     2.49731e+07	
       913.483	     2.50082e+07	
       913.533	     2.50541e+07	
       913.633	     2.51272e+07	
       913.822	     2.51831e+07	
       913.855	     2.52103e+07	
       914.010	     2.52585e+07	
       914.165	     2.50786e+07	
       914.320	     2.53348e+07	
       914.375	     2.53174e+07	
       914.475	     2.49127e+07	
       914.575	     2.45669e+07	
       914.676	     2.49701e+07	
       914.776	     2.53607e+07	
       914.876	     2.50720e+07	
       914.881	     2.50345e+07	
       914.976	     2.41084e+07	
       915.071	     2.34425e+07	
       915.261	     2.51677e+07	
       915.451	     2.48319e+07	
       915.592	     2.25480e+07	
       915.642	     2.17702e+07	
       915.692	     2.16989e+07	
       915.792	     2.34830e+07	
       915.892	     2.54930e+07	
       915.992	     2.65974e+07	
       916.092	     2.65120e+07	
       916.192	     2.52124e+07	
       916.292	     2.28524e+07	
       916.342	     2.13815e+07	
       916.392	     2.01588e+07	
       916.442	     1.99035e+07	
       916.543	     2.24603e+07	
       916.643	     2.56692e+07	
       916.743	     2.80356e+07	
       916.843	     2.92596e+07	
       916.943	     2.92076e+07	
       917.043	     2.77501e+07	
       917.143	     2.50474e+07	
       917.243	     2.15239e+07	
       917.293	     1.94877e+07	
       917.343	     1.78481e+07	
       917.393	     1.75255e+07	
       917.494	     2.08584e+07	
       917.594	     2.50275e+07	
       917.694	     2.86436e+07	
       917.794	     3.14037e+07	
       917.894	     3.30203e+07	
       917.994	     3.34765e+07	
       918.094	     3.25557e+07	
       918.194	     3.04969e+07	
       918.294	     2.73438e+07	
       918.394	     2.33982e+07	
       918.495	     1.86964e+07	
       918.545	     1.65170e+07	
       918.595	     1.53099e+07	
       918.645	     1.60136e+07	
       918.745	     2.06115e+07	
       918.845	     2.51968e+07	
       919.045	     3.32754e+07	
       919.195	     3.74010e+07	
       919.245	     3.83108e+07	
       919.295	     3.89463e+07	
       919.396	     3.94238e+07	
       919.496	     3.90337e+07	
       919.596	     3.75596e+07	
       919.696	     3.49772e+07	
       919.796	     3.17926e+07	
       919.896	     2.77785e+07	
       919.996	     2.32669e+07	
       920.096	     1.82795e+07	
       920.146	     1.56110e+07	
       920.196	     1.38895e+07	
       920.246	     1.41550e+07	
       920.346	     1.89944e+07	
       920.447	     2.38975e+07	
       920.547	     2.86615e+07	
       920.647	     3.30665e+07	
       920.747	     3.69552e+07	
       920.847	     4.06466e+07	
       920.947	     4.35437e+07	
       921.047	     4.57520e+07	
       921.147	     4.73272e+07	
       921.247	     4.81009e+07	
       921.348	     4.82065e+07	
       921.448	     4.76177e+07	
       921.548	     4.61977e+07	
       921.648	     4.40181e+07	
       921.748	     4.12667e+07	
       921.848	     3.77469e+07	
       921.948	     3.38906e+07	
       922.048	     2.95984e+07	
       922.148	     2.49013e+07	
       922.248	     1.97819e+07	
       922.292	     1.71940e+07	
       922.349	     1.41255e+07	
       922.405	     1.27467e+07	
       922.517	     1.72270e+07	
       922.629	     2.33575e+07	
       922.672	     2.56008e+07	
       922.741	     2.89258e+07	
       922.810	     3.21756e+07	
       922.948	     3.81245e+07	
       923.086	     4.38579e+07	
       923.224	     4.88175e+07	
       923.363	     5.31689e+07	
       923.501	     5.64554e+07	
       923.639	     5.89077e+07	
       923.777	     6.03817e+07	
       923.915	     6.10594e+07	
       924.053	     6.09328e+07	
       924.191	     5.98898e+07	
       924.330	     5.78917e+07	
       924.468	     5.49443e+07	
       924.606	     5.10367e+07	
       924.744	     4.63269e+07	
       924.882	     4.10295e+07	
       925.020	     3.51145e+07	
       925.158	     2.86697e+07	
       925.297	     2.14498e+07	
       925.385	     1.61509e+07	
       925.435	     1.32254e+07	
       925.485	     1.22251e+07	
       925.585	     1.62974e+07	
       925.685	     2.22934e+07	
       925.785	     2.76363e+07	
       925.885	     3.25893e+07	
       925.985	     3.70947e+07	
       926.085	     4.16472e+07	
       926.202	     4.65898e+07	
       926.286	     4.98715e+07	
       926.369	     5.32066e+07	
       926.535	     5.91600e+07	
       926.701	     6.44780e+07	
       926.867	     6.90403e+07	
       927.033	     7.27571e+07	
       927.199	     7.57124e+07	
       927.366	     7.78908e+07	
       927.532	     7.93554e+07	
       927.698	     8.01436e+07	
       927.864	     8.02705e+07	
       927.878	     8.02498e+07	
       928.030	     7.96837e+07	
       928.182	     7.82087e+07	
       928.335	     7.59204e+07	
       928.487	     7.29516e+07	
       928.639	     6.91757e+07	
       928.791	     6.47181e+07	
       928.797	     6.45456e+07	
       928.943	     6.00654e+07	
       929.089	     5.51877e+07	
       929.185	     5.15875e+07	
       929.235	     4.96315e+07	
       929.285	     4.76891e+07	
       929.386	     4.35849e+07	
       929.429	     4.17072e+07	
       929.486	     3.91738e+07	
       929.543	     3.65886e+07	
       929.545	     3.64971e+07	
       929.657	     3.10989e+07	
       929.769	     2.51318e+07	
       929.831	     2.14907e+07	
       929.881	     1.83024e+07	
       929.931	     1.47819e+07	
       929.981	     1.24074e+07	
       930.025	     1.22103e+07	
       930.031	     1.22791e+07	
       930.081	     1.42564e+07	
       930.137	     1.82084e+07	
       930.199	     2.21667e+07	
       930.249	     2.51101e+07	
       930.299	     2.79030e+07	
       930.322	     2.90471e+07	
       930.400	     3.31026e+07	
       930.478	     3.68641e+07	
       930.634	     4.40134e+07	
       930.649	     4.46712e+07	
       930.790	     5.05740e+07	
       930.931	     5.63096e+07	
       931.072	     6.15385e+07	
       931.213	     6.66005e+07	
       931.355	     7.17747e+07	
       931.436	     7.46691e+07	
       931.496	     7.67485e+07	
       931.536	     7.81267e+07	
       931.637	     8.13936e+07	
       931.737	     8.45060e+07	
       931.838	     8.75895e+07	
       931.939	     9.04829e+07	
       932.039	     9.31090e+07	
       932.140	     9.54890e+07	
       932.240	     9.77321e+07	
       932.341	     9.98357e+07	
       932.442	     1.01789e+08	
       932.543	     1.03605e+08	
       932.643	     1.05289e+08	
       932.744	     1.06767e+08	
       932.844	     1.07991e+08	
       932.945	     1.09075e+08	
       933.045	     1.10034e+08	
       933.089	     1.10415e+08	
       933.246	     1.11568e+08	
       933.265	     1.11684e+08	
       933.403	     1.12383e+08	
       933.432	     1.12478e+08	
       933.542	     1.12718e+08	
       933.652	     1.12747e+08	
       933.762	     1.12542e+08	
       933.872	     1.12106e+08	
       933.982	     1.11392e+08	
       934.092	     1.10377e+08	
       934.202	     1.09086e+08	
       934.312	     1.07518e+08	
       934.422	     1.05761e+08	
       934.533	     1.03877e+08	
       934.593	     1.02745e+08	
       934.643	     1.01748e+08	
       934.693	     1.00702e+08	
       934.793	     9.84914e+07	
       934.993	     9.36009e+07	
       935.143	     8.95967e+07	
       935.193	     8.82901e+07	
       935.243	     8.69539e+07	
       935.343	     8.41859e+07	
       935.544	     7.84698e+07	
       935.744	     7.23226e+07	
       935.944	     6.56018e+07	
       936.144	     5.82712e+07	
       936.344	     5.02655e+07	
       936.488	     4.40335e+07	
       936.544	     4.14382e+07	
       936.601	     3.87641e+07	
       936.713	     3.31184e+07	
       936.775	     2.97563e+07	
       936.806	     2.80302e+07	
       936.825	     2.69190e+07	
       936.875	     2.37930e+07	
       936.887	     2.30174e+07	
       936.944	     1.90203e+07	
       936.951	     1.84909e+07	
       937.001	     1.44668e+07	
       937.051	     1.26184e+07	
       937.101	     1.27207e+07	
       937.151	     1.50852e+07	
       937.201	     1.91333e+07	
       937.251	     2.26862e+07	
       937.301	     2.59294e+07	
       937.351	     2.88851e+07	
       937.359	     2.93339e+07	
       937.451	     3.43549e+07	
       937.543	     3.90311e+07	
       937.728	     4.76715e+07	
       937.824	     5.18177e+07	
       937.912	     5.55101e+07	
       938.000	     5.90924e+07	
       938.176	     6.58990e+07	
       938.352	     7.23515e+07	
       938.495	     7.73080e+07	
       938.528	     7.84267e+07	
       938.556	     7.93808e+07	
       938.705	     8.43339e+07	
       938.736	     8.53367e+07	
       938.914	     9.13029e+07	
       939.093	     9.73539e+07	
       939.271	     1.03715e+08	
       939.628	     1.16188e+08	
       939.946	     1.27682e+08	
       939.986	     1.29162e+08	
       940.144	     1.34960e+08	
       940.343	     1.41892e+08	
       940.541	     1.48535e+08	
       940.690	     1.53319e+08	
       940.740	     1.54879e+08	
       940.790	     1.56262e+08	
       940.891	     1.58959e+08	
       941.091	     1.64079e+08	
       941.291	     1.68857e+08	
       941.491	     1.73014e+08	
       941.691	     1.76768e+08	
       941.891	     1.80229e+08	
       942.092	     1.83384e+08	
       942.292	     1.86182e+08	
       942.337	     1.86743e+08	
       942.492	     1.88522e+08	
       942.515	     1.88760e+08	
       942.692	     1.90451e+08	
       942.870	     1.91789e+08	
       943.048	     1.92765e+08	
       943.225	     1.93328e+08	
       943.403	     1.93105e+08	
       943.580	     1.92329e+08	
       943.758	     1.90969e+08	
       943.935	     1.89002e+08	
       944.114	     1.86353e+08	
       944.291	     1.82973e+08	
       944.469	     1.78951e+08	
       944.646	     1.74309e+08	
       944.824	     1.69272e+08	
       945.001	     1.64028e+08	
       945.051	     1.62495e+08	
       945.179	     1.58402e+08	
       945.308	     1.54155e+08	
       945.564	     1.45827e+08	
       945.820	     1.37137e+08	
       946.076	     1.28523e+08	
       946.204	     1.24234e+08	
       946.333	     1.19945e+08	
       946.461	     1.16006e+08	
       946.532	     1.13817e+08	
       946.589	     1.12061e+08	
       946.845	     1.04269e+08	
       947.158	     9.46863e+07	
       947.314	     8.98031e+07	
       947.472	     8.47954e+07	
       947.487	     8.43084e+07	
       947.628	     7.96359e+07	
       947.636	     7.93840e+07	
       947.785	     7.42600e+07	
       947.934	     6.87937e+07	
       948.033	     6.49917e+07	
       948.083	     6.30021e+07	
       948.133	     6.09730e+07	
       948.233	     5.67598e+07	
       948.333	     5.24266e+07	
       948.433	     4.78150e+07	
       948.483	     4.53919e+07	
       948.534	     4.28915e+07	
       948.584	     4.02985e+07	
       948.591	     3.99287e+07	
       948.661	     3.61403e+07	
       948.684	     3.48296e+07	
       948.777	     2.92815e+07	
       948.835	     2.52900e+07	
       948.893	     2.06956e+07	
       948.901	     2.00005e+07	
       948.951	     1.53002e+07	
       949.001	     1.36868e+07	
       949.049	     1.37175e+07	
       949.051	     1.37313e+07	
       949.101	     1.57886e+07	
       949.153	     2.07373e+07	
       949.207	     2.50717e+07	
       949.257	     2.86177e+07	
       949.307	     3.17467e+07	
       949.314	     3.21671e+07	
       949.407	     3.75568e+07	
       949.500	     4.25604e+07	
       949.687	     5.17197e+07	
       949.783	     5.60529e+07	
       949.873	     5.99881e+07	
       949.963	     6.37863e+07	
       950.143	     7.09871e+07	
       950.323	     7.77287e+07	
       950.503	     8.40932e+07	
       950.683	     9.02690e+07	
       950.814	     9.46524e+07	
       950.864	     9.63256e+07	
       950.914	     9.79963e+07	
       951.014	     1.01333e+08	
       951.214	     1.08036e+08	
       951.414	     1.14847e+08	
       951.614	     1.21920e+08	
       951.814	     1.29518e+08	
       952.015	     1.37724e+08	
       952.092	     1.40964e+08	
       952.215	     1.46349e+08	
       952.254	     1.48108e+08	
       952.415	     1.55591e+08	
       952.577	     1.63255e+08	
       952.738	     1.71334e+08	
       952.899	     1.80187e+08	
       953.061	     1.89417e+08	
       953.223	     1.99030e+08	
       953.385	     2.09321e+08	
       953.546	     2.20202e+08	
       953.708	     2.31397e+08	
       954.031	     2.54524e+08	
       954.355	     2.77265e+08	
       954.516	     2.88694e+08	
       954.678	     3.00114e+08	
       954.839	     3.11423e+08	
       955.001	     3.21259e+08	
       955.162	     3.31030e+08	
       955.281	     3.38155e+08	
       955.324	     3.40731e+08	
       955.648	     3.59904e+08	
       956.014	     3.80686e+08	
       956.380	     4.00886e+08	
       956.747	     4.20515e+08	
       957.113	     4.39518e+08	
       957.479	     4.57809e+08	
       957.846	     4.75191e+08	
       957.868	     4.76206e+08	
       958.212	     4.91552e+08	
       958.223	     4.92027e+08	
       958.578	     5.06896e+08	
       958.934	     5.20530e+08	
       959.289	     5.32780e+08	
       959.569	     5.41598e+08	
       959.644	     5.43775e+08	
       959.999	     5.53074e+08	
       960.430	     5.61811e+08	
       960.645	     5.65606e+08	
       960.860	     5.68578e+08	
       961.075	     5.70651e+08	
       961.290	     5.71845e+08	
       961.506	     5.72119e+08	
       961.721	     5.71402e+08	
       961.936	     5.69728e+08	
       962.151	     5.67054e+08	
       962.366	     5.63288e+08	
       962.582	     5.58528e+08	
       962.797	     5.52732e+08	
       963.012	     5.45713e+08	
       963.227	     5.37728e+08	
       963.442	     5.28777e+08	
       963.657	     5.18787e+08	
       963.873	     5.07955e+08	
       963.945	     5.04141e+08	
       964.088	     4.96243e+08	
       964.231	     4.87817e+08	
       964.517	     4.70127e+08	
       964.803	     4.51240e+08	
       965.090	     4.31272e+08	
       965.376	     4.10647e+08	
       965.662	     3.89052e+08	
       966.235	     3.45622e+08	
       966.521	     3.24159e+08	
       966.807	     3.03014e+08	
       967.093	     2.82403e+08	
       967.379	     2.62752e+08	
       967.666	     2.43890e+08	
       967.872	     2.31005e+08	
       967.952	     2.26159e+08	
       968.032	     2.21347e+08	
       968.192	     2.11875e+08	
       968.352	     2.02785e+08	
       968.512	     1.94044e+08	
       968.673	     1.85622e+08	
       968.833	     1.77452e+08	
       968.993	     1.69576e+08	
       969.009	     1.68801e+08	
       969.153	     1.61947e+08	
       969.297	     1.55275e+08	
       969.585	     1.42323e+08	
       969.820	     1.32104e+08	
       969.873	     1.29826e+08	
       969.927	     1.27556e+08	
       970.033	     1.23024e+08	
       970.245	     1.13953e+08	
       970.457	     1.04764e+08	
       970.464	     1.04449e+08	
       970.567	     9.99011e+07	
       970.669	     9.52151e+07	
       970.772	     9.03544e+07	
       970.874	     8.53480e+07	
       970.976	     8.01298e+07	
       971.079	     7.46248e+07	
       971.182	     6.87494e+07	
       971.222	     6.63784e+07	
       971.285	     6.23923e+07	
       971.348	     5.81867e+07	
       971.364	     5.70868e+07	
       971.474	     4.90186e+07	
       971.585	     4.00993e+07	
       971.646	     3.48365e+07	
       971.696	     3.02588e+07	
       971.746	     2.53557e+07	
       971.796	     1.97339e+07	
       971.846	     1.62612e+07	
       971.896	     2.13107e+07	
       971.904	     2.22982e+07	
       971.946	     2.67230e+07	
       971.996	     3.15438e+07	
       972.087	     3.97157e+07	
       972.216	     5.01665e+07	
       972.270	     5.41906e+07	
       972.324	     5.80230e+07	
       972.433	     6.51133e+07	
       972.541	     7.15444e+07	
       972.649	     7.74220e+07	
       972.707	     8.04078e+07	
       972.757	     8.28865e+07	
       972.807	     8.52867e+07	
       972.907	     8.98819e+07	
       973.007	     9.42390e+07	
       973.107	     9.83953e+07	
       973.207	     1.02379e+08	
       973.407	     1.09987e+08	
       973.470	     1.12297e+08	
       973.503	     1.13496e+08	
       973.607	     1.17292e+08	
       973.746	     1.22205e+08	
       974.021	     1.31916e+08	
       974.037	     1.32482e+08	
       974.571	     1.51547e+08	
       974.838	     1.61187e+08	
       975.106	     1.71277e+08	
       975.373	     1.81774e+08	
       975.640	     1.91911e+08	
       975.907	     2.02789e+08	
       976.174	     2.13930e+08	
       976.308	     2.19776e+08	
       976.442	     2.25908e+08	
       976.575	     2.32353e+08	
       976.709	     2.39185e+08	
       976.842	     2.46471e+08	
       976.976	     2.54268e+08	
       977.109	     2.62660e+08	
       977.243	     2.71762e+08	
       977.376	     2.80475e+08	
       977.509	     2.89013e+08	
       977.644	     2.98104e+08	
       977.777	     3.07839e+08	
       977.911	     3.18312e+08	
       978.044	     3.28573e+08	
       978.178	     3.38802e+08	
       978.311	     3.49691e+08	
       978.445	     3.61324e+08	
       978.578	     3.73787e+08	
       978.712	     3.87333e+08	
       978.845	     4.02114e+08	
       978.980	     4.18199e+08	
       979.113	     4.35802e+08	
       979.188	     4.46442e+08	
       979.246	     4.55185e+08	
       979.305	     4.64327e+08	
       979.422	     4.80544e+08	
       979.539	     4.97964e+08	
       979.656	     5.16776e+08	
       979.773	     5.37109e+08	
       979.891	     5.59191e+08	
       980.008	     5.81022e+08	
       980.125	     5.98279e+08	
       980.243	     6.16365e+08	
       980.360	     6.35331e+08	
       980.477	     6.55255e+08	
       980.594	     6.76215e+08	
       980.711	     6.95483e+08	
       980.828	     7.12208e+08	
       980.946	     7.29371e+08	
       981.063	     7.46983e+08	
       981.180	     7.65059e+08	
       981.414	     8.01383e+08	
       981.719	     8.48148e+08	
       981.884	     8.74544e+08	
       982.270	     9.34272e+08	
       982.820	     1.02046e+09	
       983.097	     1.06481e+09	
       983.372	     1.11061e+09	
       983.648	     1.15962e+09	
       983.923	     1.21059e+09	
       984.475	     1.30981e+09	
       984.536	     1.32088e+09	
       985.026	     1.40618e+09	
       985.577	     1.50125e+09	
       986.098	     1.59465e+09	
       986.358	     1.63969e+09	
       986.488	     1.66234e+09	
       986.618	     1.68508e+09	
       986.748	     1.70731e+09	
       986.878	     1.72141e+09	
       987.009	     1.73447e+09	
       987.139	     1.74728e+09	
       987.269	     1.75984e+09	
       987.399	     1.77233e+09	
       987.530	     1.78417e+09	
       987.660	     1.79543e+09	
       987.920	     1.81723e+09	
       988.050	     1.82778e+09	
       988.180	     1.84125e+09	
       988.311	     1.85988e+09	
       988.441	     1.87825e+09	
       988.701	     1.91498e+09	
       988.961	     1.94500e+09	
