# Koester WD models
# teff = 25000 K (value for the effective temperature for the model. Temperatures are given in K)
# logg = 9.25 log(cm/s2) (value for Log(G) for the model.)
#
#   WAVELENGTH	#           FLUX	
#   (ANGSTROM)	#  (ERG/CM2/S/A)	
##############	################	
       899.230	     1.98366e+08	
       904.235	     2.03174e+08	
       908.450	     2.07247e+08	
       909.241	     2.08012e+08	
       910.032	     2.08776e+08	
       911.193	     2.09891e+08	
       911.613	     2.10292e+08	
       912.034	     2.10688e+08	
       912.218	     2.11076e+08	
       912.487	     2.11635e+08	
       912.875	     2.12417e+08	
       913.531	     2.13646e+08	
       914.080	     2.14485e+08	
       914.575	     2.14975e+08	
       915.071	     2.15063e+08	
       915.490	     2.14702e+08	
       915.540	     2.14568e+08	
       915.567	     2.14500e+08	
       915.609	     2.14401e+08	
       915.643	     2.14335e+08	
       915.677	     2.14675e+08	
       915.813	     2.16232e+08	
       915.949	     2.17649e+08	
       916.085	     2.18611e+08	
       916.221	     2.18988e+08	
       916.285	     2.19019e+08	
       916.357	     2.19130e+08	
       916.429	     2.19497e+08	
       916.574	     2.21338e+08	
       916.718	     2.23313e+08	
       916.862	     2.24297e+08	
       917.006	     2.24017e+08	
       917.150	     2.22324e+08	
       917.210	     2.21457e+08	
       917.294	     2.20186e+08	
       917.378	     2.19829e+08	
       917.547	     2.23430e+08	
       917.715	     2.27656e+08	
       917.883	     2.29565e+08	
       918.051	     2.28824e+08	
       918.219	     2.24828e+08	
       918.387	     2.17942e+08	
       918.510	     2.12449e+08	
       918.556	     2.11054e+08	
       918.602	     2.10616e+08	
       918.694	     2.13340e+08	
       918.878	     2.23583e+08	
       919.062	     2.31707e+08	
       919.201	     2.35510e+08	
       919.241	     2.36054e+08	
       919.246	     2.36101e+08	
       919.251	     2.36143e+08	
       919.301	     2.36887e+08	
       919.402	     2.37353e+08	
       919.502	     2.35876e+08	
       919.602	     2.33075e+08	
       919.702	     2.28257e+08	
       919.802	     2.22273e+08	
       919.902	     2.14378e+08	
       920.002	     2.06255e+08	
       920.165	     1.92933e+08	
       920.189	     1.92004e+08	
       920.202	     1.91765e+08	
       920.215	     1.91746e+08	
       920.265	     1.93642e+08	
       920.366	     2.02978e+08	
       920.466	     2.13979e+08	
       920.566	     2.24759e+08	
       920.766	     2.43748e+08	
       920.966	     2.57109e+08	
       921.166	     2.64073e+08	
       921.367	     2.63120e+08	
       921.567	     2.55380e+08	
       921.767	     2.38688e+08	
       921.967	     2.16652e+08	
       922.167	     1.90729e+08	
       922.331	     1.68187e+08	
       922.368	     1.64756e+08	
       922.405	     1.63606e+08	
       922.479	     1.68581e+08	
       922.627	     1.90234e+08	
       922.670	     1.96543e+08	
       922.740	     2.07039e+08	
       922.775	     2.12476e+08	
       922.810	     2.17357e+08	
       922.950	     2.37845e+08	
       923.090	     2.55381e+08	
       923.230	     2.73905e+08	
       923.371	     2.87949e+08	
       923.511	     2.99133e+08	
       923.651	     3.07731e+08	
       923.791	     3.12331e+08	
       923.931	     3.13385e+08	
       924.071	     3.11099e+08	
       924.211	     3.05547e+08	
       924.352	     2.95362e+08	
       924.492	     2.81767e+08	
       924.632	     2.65904e+08	
       924.772	     2.46141e+08	
       924.912	     2.26401e+08	
       925.052	     2.04127e+08	
       925.192	     1.81797e+08	
       925.434	     1.41264e+08	
       925.462	     1.38465e+08	
       925.473	     1.37926e+08	
       925.484	     1.37742e+08	
       925.534	     1.41362e+08	
       925.634	     1.58400e+08	
       925.734	     1.75977e+08	
       925.834	     1.93152e+08	
       925.934	     2.09600e+08	
       926.034	     2.26866e+08	
       926.134	     2.42429e+08	
       926.232	     2.59737e+08	
       926.234	     2.60095e+08	
       926.301	     2.71529e+08	
       926.335	     2.77107e+08	
       926.369	     2.82401e+08	
       926.505	     3.03724e+08	
       926.641	     3.25054e+08	
       926.777	     3.44045e+08	
       926.913	     3.59643e+08	
       927.049	     3.74490e+08	
       927.185	     3.86890e+08	
       927.322	     3.96177e+08	
       927.458	     4.02799e+08	
       927.594	     4.07040e+08	
       927.730	     4.08756e+08	
       927.866	     4.07813e+08	
       928.002	     4.04006e+08	
       928.006	     4.03845e+08	
       928.094	     3.99771e+08	
       928.138	     3.97229e+08	
       928.182	     3.94326e+08	
       928.359	     3.79083e+08	
       928.535	     3.58610e+08	
       928.711	     3.37429e+08	
       928.887	     3.11842e+08	
       928.985	     2.96323e+08	
       929.037	     2.88031e+08	
       929.063	     2.83750e+08	
       929.089	     2.79378e+08	
       929.125	     2.73998e+08	
       929.193	     2.63177e+08	
       929.252	     2.53165e+08	
       929.261	     2.51597e+08	
       929.317	     2.41680e+08	
       929.398	     2.28617e+08	
       929.430	     2.23412e+08	
       929.543	     2.04207e+08	
       929.656	     1.85123e+08	
       929.769	     1.64703e+08	
       929.827	     1.53271e+08	
       929.883	     1.41762e+08	
       929.910	     1.36213e+08	
       929.939	     1.30281e+08	
       929.954	     1.27472e+08	
       929.968	     1.25442e+08	
       929.982	     1.23829e+08	
       929.996	     1.22808e+08	
       930.010	     1.22482e+08	
       930.024	     1.22829e+08	
       930.038	     1.23871e+08	
       930.052	     1.25506e+08	
       930.081	     1.30393e+08	
       930.137	     1.41979e+08	
       930.201	     1.55020e+08	
       930.247	     1.64415e+08	
       930.249	     1.64799e+08	
       930.251	     1.65178e+08	
       930.301	     1.74278e+08	
       930.326	     1.78565e+08	
       930.329	     1.79163e+08	
       930.402	     1.92258e+08	
       930.478	     2.05439e+08	
       930.630	     2.31797e+08	
       930.931	     2.84629e+08	
       931.229	     3.38972e+08	
       931.534	     3.91232e+08	
       931.686	     4.18843e+08	
       931.838	     4.44746e+08	
       931.990	     4.67931e+08	
       932.142	     4.89514e+08	
       932.294	     5.08750e+08	
       932.447	     5.25651e+08	
       932.599	     5.40414e+08	
       932.751	     5.53062e+08	
       932.903	     5.63555e+08	
       933.055	     5.72238e+08	
       933.207	     5.79231e+08	
       933.265	     5.81474e+08	
       933.315	     5.83190e+08	
       933.359	     5.84531e+08	
       933.403	     5.85715e+08	
       933.432	     5.86231e+08	
       933.542	     5.87421e+08	
       933.652	     5.87377e+08	
       933.762	     5.85869e+08	
       933.872	     5.83004e+08	
       933.982	     5.78832e+08	
       934.092	     5.73316e+08	
       934.202	     5.66281e+08	
       934.312	     5.57658e+08	
       934.422	     5.47554e+08	
       934.533	     5.36044e+08	
       934.602	     5.28007e+08	
       934.634	     5.24068e+08	
       934.643	     5.22937e+08	
       934.652	     5.21793e+08	
       934.702	     5.15259e+08	
       934.774	     5.05620e+08	
       934.802	     5.02243e+08	
       934.888	     4.91380e+08	
       935.002	     4.75926e+08	
       935.116	     4.59571e+08	
       935.230	     4.42861e+08	
       935.344	     4.24904e+08	
       935.458	     4.06133e+08	
       935.687	     3.67504e+08	
       935.801	     3.48415e+08	
       935.915	     3.28400e+08	
       936.030	     3.07824e+08	
       936.144	     2.87279e+08	
       936.146	     2.86916e+08	
       936.373	     2.47161e+08	
       936.486	     2.27115e+08	
       936.601	     2.06721e+08	
       936.715	     1.86604e+08	
       936.779	     1.74442e+08	
       936.814	     1.67648e+08	
       936.828	     1.64962e+08	
       936.879	     1.53894e+08	
       936.887	     1.52301e+08	
       936.944	     1.38931e+08	
       936.973	     1.31727e+08	
       937.001	     1.24708e+08	
       937.015	     1.21090e+08	
       937.029	     1.18277e+08	
       937.043	     1.15949e+08	
       937.058	     1.14355e+08	
       937.072	     1.13888e+08	
       937.086	     1.14374e+08	
       937.101	     1.15990e+08	
       937.115	     1.18339e+08	
       937.143	     1.24814e+08	
       937.150	     1.26496e+08	
       937.186	     1.35816e+08	
       937.199	     1.38868e+08	
       937.250	     1.51149e+08	
       937.314	     1.65017e+08	
       937.341	     1.70182e+08	
       937.442	     1.89612e+08	
       937.543	     2.07811e+08	
       937.645	     2.26377e+08	
       937.694	     2.35198e+08	
       937.847	     2.63315e+08	
       938.000	     2.90498e+08	
       938.153	     3.19073e+08	
       938.306	     3.47919e+08	
       938.311	     3.48842e+08	
       938.612	     4.04411e+08	
       938.914	     4.61547e+08	
       939.159	     5.06663e+08	
       939.215	     5.17106e+08	
       939.271	     5.27473e+08	
       939.383	     5.47950e+08	
       939.495	     5.71314e+08	
       939.607	     5.94157e+08	
       939.832	     6.38202e+08	
       940.056	     6.79982e+08	
       940.280	     7.19114e+08	
       940.504	     7.56197e+08	
       940.690	     7.84839e+08	
       940.716	     7.88684e+08	
       940.728	     7.90444e+08	
       940.740	     7.92140e+08	
       940.790	     7.98634e+08	
       940.891	     8.11304e+08	
       941.091	     8.35387e+08	
       941.291	     8.57758e+08	
       941.491	     8.78399e+08	
       941.691	     8.97368e+08	
       941.891	     9.14672e+08	
       942.092	     9.30100e+08	
       942.292	     9.43313e+08	
       942.337	     9.46028e+08	
       942.492	     9.54683e+08	
       942.515	     9.55848e+08	
       942.692	     9.64214e+08	
       942.870	     9.71047e+08	
       942.998	     9.74993e+08	
       943.048	     9.76306e+08	
       943.098	     9.77403e+08	
       943.198	     9.79184e+08	
       943.398	     9.80215e+08	
       943.598	     9.78546e+08	
       943.798	     9.74073e+08	
       943.998	     9.66630e+08	
       944.199	     9.52876e+08	
       944.399	     9.34278e+08	
       944.599	     9.11580e+08	
       944.799	     8.85018e+08	
       944.999	     8.55173e+08	
       945.091	     8.40219e+08	
       945.200	     8.21775e+08	
       945.308	     8.02463e+08	
       945.524	     7.63699e+08	
       945.740	     7.23700e+08	
       945.956	     6.84823e+08	
       946.172	     6.48462e+08	
       946.389	     6.10547e+08	
       946.484	     5.93648e+08	
       946.605	     5.71732e+08	
       946.821	     5.33452e+08	
       947.158	     4.74886e+08	
       947.496	     4.14257e+08	
       947.583	     3.98200e+08	
       947.833	     3.51789e+08	
       948.083	     3.04663e+08	
       948.121	     2.97646e+08	
       948.333	     2.58381e+08	
       948.439	     2.38553e+08	
       948.546	     2.18619e+08	
       948.652	     1.98503e+08	
       948.701	     1.88968e+08	
       948.739	     1.81035e+08	
       948.758	     1.76964e+08	
       948.777	     1.72960e+08	
       948.813	     1.64681e+08	
       948.835	     1.59298e+08	
       948.853	     1.54810e+08	
       948.893	     1.43558e+08	
       948.922	     1.34764e+08	
       948.951	     1.25678e+08	
       948.966	     1.20696e+08	
       948.980	     1.17360e+08	
       948.994	     1.14801e+08	
       949.009	     1.13109e+08	
       949.023	     1.12619e+08	
       949.037	     1.13127e+08	
       949.052	     1.14841e+08	
       949.066	     1.17420e+08	
       949.095	     1.25784e+08	
       949.153	     1.43771e+08	
       949.230	     1.64321e+08	
       949.258	     1.70998e+08	
       949.269	     1.73429e+08	
       949.280	     1.75806e+08	
       949.330	     1.86523e+08	
       949.360	     1.92649e+08	
       949.430	     2.06144e+08	
       949.500	     2.19720e+08	
       949.640	     2.46498e+08	
       949.795	     2.75923e+08	
       949.879	     2.91796e+08	
       949.921	     2.99619e+08	
       949.963	     3.07554e+08	
       950.131	     3.40071e+08	
       950.299	     3.72631e+08	
       950.383	     3.88791e+08	
       950.635	     4.37112e+08	
       950.888	     4.84660e+08	
       951.140	     5.31711e+08	
       951.266	     5.55336e+08	
       951.392	     5.79850e+08	
       951.518	     6.05429e+08	
       951.644	     6.30920e+08	
       951.770	     6.56565e+08	
       951.896	     6.82335e+08	
       952.023	     7.08030e+08	
       952.149	     7.33581e+08	
       952.275	     7.63438e+08	
       952.401	     7.94619e+08	
       952.568	     8.36996e+08	
       952.653	     8.58962e+08	
       952.738	     8.81952e+08	
       952.908	     9.29311e+08	
       953.249	     1.02488e+09	
       953.589	     1.12249e+09	
       953.759	     1.17121e+09	
       953.929	     1.21963e+09	
       954.099	     1.26312e+09	
       954.270	     1.30265e+09	
       954.440	     1.34175e+09	
       954.610	     1.38033e+09	
       954.950	     1.45501e+09	
       955.247	     1.51736e+09	
       955.290	     1.52628e+09	
       955.631	     1.59574e+09	
       956.014	     1.67007e+09	
       956.397	     1.73961e+09	
       956.781	     1.80586e+09	
       957.164	     1.86905e+09	
       957.547	     1.92882e+09	
       957.931	     1.98471e+09	
       958.314	     2.03665e+09	
       958.697	     2.08443e+09	
       958.872	     2.10481e+09	
       959.081	     2.12773e+09	
       959.289	     2.14925e+09	
       959.705	     2.18700e+09	
       959.813	     2.19571e+09	
       960.122	     2.21807e+09	
       960.430	     2.23652e+09	
       960.738	     2.25053e+09	
       961.046	     2.26022e+09	
       961.355	     2.26546e+09	
       961.663	     2.26590e+09	
       961.971	     2.26141e+09	
       962.279	     2.25159e+09	
       962.588	     2.23626e+09	
       962.896	     2.21505e+09	
       963.204	     2.18766e+09	
       963.410	     2.16617e+09	
       963.512	     2.15440e+09	
       963.615	     2.14187e+09	
       963.821	     2.11506e+09	
       964.026	     2.08573e+09	
       964.231	     2.05322e+09	
       964.436	     2.01786e+09	
       964.641	     1.98022e+09	
       964.846	     1.93993e+09	
       965.052	     1.89728e+09	
       965.462	     1.80587e+09	
       965.872	     1.70608e+09	
       966.283	     1.60060e+09	
       966.693	     1.49139e+09	
       966.995	     1.40793e+09	
       967.103	     1.37817e+09	
       967.514	     1.26517e+09	
       968.032	     1.12428e+09	
       968.291	     1.05446e+09	
       968.550	     9.86363e+08	
       968.810	     9.19522e+08	
       968.841	     9.11587e+08	
       969.069	     8.53932e+08	
       969.297	     7.97185e+08	
       969.580	     7.27338e+08	
       969.671	     7.05055e+08	
       969.753	     6.85031e+08	
       969.927	     6.42845e+08	
       969.973	     6.31743e+08	
       970.273	     5.57959e+08	
       970.423	     5.20735e+08	
       970.574	     4.83124e+08	
       970.724	     4.44614e+08	
       970.874	     4.05630e+08	
       971.002	     3.72175e+08	
       971.175	     3.26521e+08	
       971.348	     2.80036e+08	
       971.456	     2.50421e+08	
       971.467	     2.47394e+08	
       971.521	     2.32478e+08	
       971.585	     2.14142e+08	
       971.644	     1.96701e+08	
       971.703	     1.77837e+08	
       971.732	     1.67610e+08	
       971.762	     1.55787e+08	
       971.778	     1.48566e+08	
       971.792	     1.41523e+08	
       971.806	     1.32587e+08	
       971.821	     1.21151e+08	
       971.827	     1.18471e+08	
       971.833	     1.18474e+08	
       971.836	     1.18477e+08	
       971.839	     1.18479e+08	
       971.851	     1.18487e+08	
       971.866	     1.28151e+08	
       971.880	     1.38038e+08	
       971.910	     1.53292e+08	
       971.969	     1.76037e+08	
       972.037	     1.98006e+08	
       972.087	     2.12902e+08	
       972.137	     2.27338e+08	
       972.150	     2.31028e+08	
       972.237	     2.55373e+08	
       972.324	     2.79265e+08	
       972.499	     3.25780e+08	
       972.548	     3.38538e+08	
       972.673	     3.70413e+08	
       972.798	     4.01398e+08	
       972.923	     4.31382e+08	
       973.048	     4.60297e+08	
       973.173	     4.88182e+08	
       973.298	     5.15111e+08	
       973.351	     5.26402e+08	
       973.548	     5.67447e+08	
       973.746	     6.07427e+08	
       973.943	     6.46992e+08	
       974.337	     7.23845e+08	
       974.611	     7.79206e+08	
       974.731	     8.02306e+08	
       975.126	     8.80614e+08	
       975.640	     9.82153e+08	
       975.897	     1.03389e+09	
       976.154	     1.08565e+09	
       976.412	     1.13959e+09	
       976.669	     1.19748e+09	
       976.798	     1.22841e+09	
       976.926	     1.26088e+09	
       977.055	     1.29511e+09	
       977.183	     1.33142e+09	
       977.440	     1.40227e+09	
       977.570	     1.43697e+09	
       977.698	     1.47335e+09	
       977.827	     1.51161e+09	
       977.955	     1.55197e+09	
       978.212	     1.62682e+09	
       978.341	     1.66654e+09	
       978.469	     1.70816e+09	
       978.598	     1.75195e+09	
       978.726	     1.79865e+09	
       978.855	     1.84833e+09	
       978.984	     1.90112e+09	
       979.113	     1.95752e+09	
       979.177	     1.98734e+09	
       979.241	     2.01802e+09	
       979.305	     2.04984e+09	
       979.433	     2.10586e+09	
       979.561	     2.16522e+09	
       979.689	     2.22838e+09	
       979.817	     2.29573e+09	
       979.945	     2.36774e+09	
       980.073	     2.42587e+09	
       980.202	     2.48044e+09	
       980.330	     2.53702e+09	
       980.458	     2.59577e+09	
       980.586	     2.65683e+09	
       980.714	     2.71292e+09	
       980.842	     2.76133e+09	
       981.098	     2.86083e+09	
       981.611	     3.05991e+09	
       982.123	     3.25667e+09	
       982.635	     3.44309e+09	
       983.397	     3.72392e+09	
       983.660	     3.82633e+09	
       983.923	     3.93104e+09	
       984.450	     4.12906e+09	
       984.976	     4.31821e+09	
       985.502	     4.49951e+09	
       986.492	     4.84066e+09	
       986.555	     4.86180e+09	
       986.618	     4.88298e+09	
       986.744	     4.92498e+09	
       986.870	     4.95395e+09	
       986.997	     4.98062e+09	
       987.249	     5.03274e+09	
       987.753	     5.12978e+09	
       988.005	     5.17480e+09	
       988.257	     5.23169e+09	
       988.510	     5.30075e+09	
       988.762	     5.36933e+09	
       989.014	     5.42261e+09	
       989.128	     5.44469e+09	
       989.220	     5.46232e+09	
       989.266	     5.47108e+09	
       989.312	     5.47979e+09	
       989.496	     5.51403e+09	
       989.681	     5.52437e+09	
       989.865	     5.53288e+09	
       990.233	     5.54931e+09	
       990.601	     5.58409e+09	
       990.785	     5.60049e+09	
       990.969	     5.62873e+09	
       991.154	     5.67098e+09	
       991.338	     5.71299e+09	
       991.522	     5.75446e+09	
       991.706	     5.81245e+09	
       992.074	     5.93682e+09	
       992.442	     6.08291e+09	
       992.811	     6.25413e+09	
       993.179	     6.43414e+09	
       993.215	     6.45214e+09	
       993.381	     6.53596e+09	
       993.547	     6.62175e+09	
       993.713	     6.69599e+09	
       993.829	     6.73460e+09	
       993.880	     6.75113e+09	
       993.930	     6.76768e+09	
       994.030	     6.80111e+09	
       994.230	     6.86771e+09	
       994.430	     6.91596e+09	
       994.630	     6.94298e+09	
       995.030	     6.99526e+09	
       995.431	     7.06796e+09	
       995.631	     7.10324e+09	
       995.831	     7.16183e+09	
       996.031	     7.24194e+09	
       996.231	     7.32293e+09	
       996.431	     7.40561e+09	
       996.631	     7.51846e+09	
       996.832	     7.63404e+09	
       997.032	     7.75417e+09	
       997.432	     7.99589e+09	
       997.632	     8.12124e+09	
       997.832	     8.24681e+09	
       998.018	     8.33311e+09	
