# Koester WD models
# teff = 30000 K (value for the effective temperature for the model. Temperatures are given in K)
# logg = 9.25 log(cm/s2) (value for Log(G) for the model.)
#
#   WAVELENGTH	#           FLUX	
#   (ANGSTROM)	#  (ERG/CM2/S/A)	
##############	################	
       899.230	     2.70829e+09	
       904.235	     2.73367e+09	
       908.450	     2.75469e+09	
       909.241	     2.75857e+09	
       910.032	     2.76242e+09	
       911.193	     2.76798e+09	
       911.613	     2.76995e+09	
       912.034	     2.77190e+09	
       912.465	     2.77461e+09	
       912.875	     2.77712e+09	
       913.037	     2.77809e+09	
       913.241	     2.77927e+09	
       913.284	     2.77952e+09	
       913.478	     2.78061e+09	
       913.531	     2.78090e+09	
       913.755	     2.78208e+09	
       913.822	     2.78242e+09	
       914.080	     2.78366e+09	
       914.165	     2.78404e+09	
       914.499	     2.78539e+09	
       914.575	     2.78564e+09	
       915.071	     2.78686e+09	
       915.540	     2.78688e+09	
       915.609	     2.78679e+09	
       915.643	     2.78673e+09	
       915.677	     2.78786e+09	
       915.741	     2.78997e+09	
       915.813	     2.79234e+09	
       916.085	     2.80028e+09	
       916.429	     2.80831e+09	
       916.858	     2.81875e+09	
       917.118	     2.82060e+09	
       917.378	     2.82132e+09	
       917.639	     2.82842e+09	
       917.899	     2.83192e+09	
       918.159	     2.82778e+09	
       918.237	     2.82504e+09	
       918.420	     2.81622e+09	
       918.602	     2.80970e+09	
       918.681	     2.81170e+09	
       918.784	     2.81730e+09	
       918.966	     2.82746e+09	
       919.251	     2.83126e+09	
       919.394	     2.83870e+09	
       919.537	     2.83831e+09	
       919.679	     2.83549e+09	
       919.822	     2.82619e+09	
       919.964	     2.81277e+09	
       919.999	     2.80925e+09	
       920.107	     2.79821e+09	
       920.215	     2.79560e+09	
       920.323	     2.81229e+09	
       920.432	     2.83737e+09	
       920.540	     2.86224e+09	
       920.648	     2.88511e+09	
       920.756	     2.90592e+09	
       920.864	     2.92017e+09	
       920.972	     2.93213e+09	
       921.080	     2.94071e+09	
       921.188	     2.94345e+09	
       921.296	     2.93996e+09	
       921.405	     2.93099e+09	
       921.513	     2.91563e+09	
       921.621	     2.89741e+09	
       921.729	     2.86817e+09	
       921.837	     2.84065e+09	
       921.945	     2.80604e+09	
       922.053	     2.76787e+09	
       922.134	     2.73622e+09	
       922.269	     2.68750e+09	
       922.405	     2.65940e+09	
       922.540	     2.70005e+09	
       922.675	     2.76247e+09	
       922.760	     2.80481e+09	
       922.810	     2.82752e+09	
       922.860	     2.85422e+09	
       922.960	     2.90493e+09	
       923.160	     2.99574e+09	
       923.361	     3.06574e+09	
       923.561	     3.11836e+09	
       923.761	     3.14326e+09	
       923.961	     3.13716e+09	
       924.161	     3.10715e+09	
       924.362	     3.04593e+09	
       924.562	     2.94013e+09	
       924.762	     2.82937e+09	
       924.841	     2.77295e+09	
       924.962	     2.68861e+09	
       925.002	     2.65916e+09	
       925.162	     2.53317e+09	
       925.324	     2.41138e+09	
       925.434	     2.33598e+09	
       925.484	     2.32328e+09	
       925.534	     2.33981e+09	
       925.634	     2.41584e+09	
       925.734	     2.50027e+09	
       925.834	     2.59100e+09	
       925.900	     2.64968e+09	
       925.934	     2.68353e+09	
       926.134	     2.86659e+09	
       926.369	     3.07049e+09	
       926.486	     3.17405e+09	
       926.603	     3.27134e+09	
       926.720	     3.35431e+09	
       926.837	     3.42785e+09	
       926.954	     3.49097e+09	
       927.071	     3.55669e+09	
       927.188	     3.60762e+09	
       927.306	     3.64528e+09	
       927.423	     3.67142e+09	
       927.540	     3.68939e+09	
       927.657	     3.69699e+09	
       927.774	     3.69175e+09	
       927.834	     3.68396e+09	
       927.891	     3.67318e+09	
       928.008	     3.63991e+09	
       928.182	     3.58063e+09	
       928.357	     3.48912e+09	
       928.531	     3.35692e+09	
       928.705	     3.22082e+09	
       928.879	     3.06843e+09	
       928.945	     3.00206e+09	
       929.017	     2.92447e+09	
       929.053	     2.88247e+09	
       929.089	     2.83822e+09	
       929.149	     2.78534e+09	
       929.205	     2.73141e+09	
       929.233	     2.70349e+09	
       929.261	     2.67528e+09	
       929.374	     2.55280e+09	
       929.429	     2.48878e+09	
       929.486	     2.43463e+09	
       929.543	     2.37355e+09	
       929.545	     2.37126e+09	
       929.655	     2.25020e+09	
       929.657	     2.24824e+09	
       929.769	     2.12620e+09	
       929.827	     2.06408e+09	
       929.883	     2.00387e+09	
       929.910	     1.97670e+09	
       929.939	     1.94952e+09	
       929.954	     1.93745e+09	
       929.968	     1.92909e+09	
       929.982	     1.92272e+09	
       929.996	     1.91888e+09	
       930.010	     1.91774e+09	
       930.024	     1.91913e+09	
       930.038	     1.92324e+09	
       930.052	     1.92986e+09	
       930.081	     1.95084e+09	
       930.137	     2.00639e+09	
       930.201	     2.07666e+09	
       930.247	     2.12743e+09	
       930.249	     2.12960e+09	
       930.251	     2.13175e+09	
       930.301	     2.18792e+09	
       930.326	     2.21611e+09	
       930.329	     2.21966e+09	
       930.402	     2.29987e+09	
       930.478	     2.38919e+09	
       930.630	     2.56069e+09	
       930.781	     2.74100e+09	
       930.931	     2.90503e+09	
       931.081	     3.11091e+09	
       931.232	     3.29380e+09	
       931.383	     3.47624e+09	
       931.534	     3.66435e+09	
       931.788	     3.96940e+09	
       931.832	     4.01565e+09	
       931.835	     4.01876e+09	
       931.838	     4.02184e+09	
       931.888	     4.07169e+09	
       931.988	     4.16440e+09	
       932.188	     4.36851e+09	
       932.389	     4.53731e+09	
       932.589	     4.67428e+09	
       932.789	     4.78383e+09	
       932.989	     4.86925e+09	
       933.189	     4.93045e+09	
       933.347	     4.96359e+09	
       933.375	     4.96767e+09	
       933.377	     4.96796e+09	
       933.389	     4.96956e+09	
       933.403	     4.97126e+09	
       933.432	     4.97374e+09	
       933.460	     4.97553e+09	
       933.542	     4.97741e+09	
       933.652	     4.97173e+09	
       933.762	     4.95567e+09	
       933.872	     4.92941e+09	
       933.982	     4.89444e+09	
       934.092	     4.85087e+09	
       934.202	     4.79633e+09	
       934.312	     4.73042e+09	
       934.413	     4.66099e+09	
       934.422	     4.65455e+09	
       934.533	     4.56885e+09	
       934.652	     4.46166e+09	
       934.771	     4.34027e+09	
       934.890	     4.21630e+09	
       935.009	     4.08058e+09	
       935.026	     4.06032e+09	
       935.128	     3.94619e+09	
       935.230	     3.84371e+09	
       935.332	     3.73315e+09	
       935.434	     3.61572e+09	
       935.537	     3.49072e+09	
       935.542	     3.48437e+09	
       935.639	     3.36154e+09	
       935.843	     3.11037e+09	
       935.994	     2.92852e+09	
       936.144	     2.72911e+09	
       936.290	     2.56447e+09	
       936.294	     2.55946e+09	
       936.445	     2.38036e+09	
       936.601	     2.20528e+09	
       936.683	     2.10845e+09	
       936.714	     2.07323e+09	
       936.756	     2.02685e+09	
       936.829	     1.93937e+09	
       936.887	     1.86825e+09	
       936.944	     1.79256e+09	
       936.973	     1.75086e+09	
       937.001	     1.70818e+09	
       937.015	     1.68652e+09	
       937.029	     1.66862e+09	
       937.043	     1.65357e+09	
       937.058	     1.64290e+09	
       937.072	     1.63958e+09	
       937.086	     1.64305e+09	
       937.101	     1.65388e+09	
       937.115	     1.66908e+09	
       937.143	     1.70897e+09	
       937.150	     1.71882e+09	
       937.186	     1.77426e+09	
       937.199	     1.79241e+09	
       937.250	     1.86118e+09	
       937.314	     1.94122e+09	
       937.341	     1.96957e+09	
       937.442	     2.09094e+09	
       937.543	     2.21192e+09	
       937.746	     2.44851e+09	
       937.896	     2.62846e+09	
       937.948	     2.68850e+09	
       938.000	     2.74903e+09	
       938.104	     2.89444e+09	
       938.208	     3.03282e+09	
       938.312	     3.16314e+09	
       938.416	     3.30417e+09	
       938.520	     3.44363e+09	
       938.543	     3.47589e+09	
       938.729	     3.73818e+09	
       938.914	     3.98621e+09	
       938.927	     4.00311e+09	
       939.099	     4.23672e+09	
       939.271	     4.51255e+09	
       939.443	     4.78647e+09	
       939.615	     5.05894e+09	
       939.788	     5.31573e+09	
       939.960	     5.57130e+09	
       940.132	     5.81235e+09	
       940.212	     5.91942e+09	
       940.304	     6.04502e+09	
       940.344	     6.09824e+09	
       940.476	     6.26776e+09	
       940.608	     6.42817e+09	
       940.740	     6.57953e+09	
       940.873	     6.71654e+09	
       941.005	     6.84594e+09	
       941.269	     7.08285e+09	
       941.533	     7.29880e+09	
       941.797	     7.48962e+09	
       942.062	     7.65239e+09	
       942.326	     7.78122e+09	
       942.590	     7.88028e+09	
       942.661	     7.90199e+09	
       942.854	     7.95005e+09	
       943.048	     7.98166e+09	
       943.241	     7.99290e+09	
       943.434	     7.98451e+09	
       943.627	     7.95665e+09	
       943.820	     7.90836e+09	
       944.013	     7.83912e+09	
       944.207	     7.72527e+09	
       944.400	     7.57947e+09	
       944.593	     7.40473e+09	
       944.651	     7.34655e+09	
       944.786	     7.20474e+09	
       944.815	     7.17461e+09	
       944.979	     6.99227e+09	
       945.143	     6.78977e+09	
       945.308	     6.56794e+09	
       945.472	     6.33081e+09	
       945.636	     6.07999e+09	
       945.800	     5.81556e+09	
       945.964	     5.57287e+09	
       946.128	     5.35337e+09	
       946.292	     5.12783e+09	
       946.457	     4.90667e+09	
       946.621	     4.67994e+09	
       946.740	     4.51268e+09	
       946.949	     4.22321e+09	
       947.158	     3.94584e+09	
       947.367	     3.67441e+09	
       947.489	     3.51456e+09	
       947.786	     3.12020e+09	
       947.934	     2.93270e+09	
       948.083	     2.73727e+09	
       948.215	     2.57499e+09	
       948.232	     2.55470e+09	
       948.380	     2.37289e+09	
       948.546	     2.17945e+09	
       948.645	     2.05981e+09	
       948.661	     2.04055e+09	
       948.711	     1.98148e+09	
       948.777	     1.89507e+09	
       948.835	     1.81439e+09	
       948.893	     1.72289e+09	
       948.922	     1.66992e+09	
       948.951	     1.61125e+09	
       948.966	     1.58068e+09	
       948.980	     1.55828e+09	
       948.994	     1.53970e+09	
       949.009	     1.52740e+09	
       949.023	     1.52371e+09	
       949.037	     1.52754e+09	
       949.052	     1.53999e+09	
       949.066	     1.55870e+09	
       949.095	     1.61199e+09	
       949.153	     1.72428e+09	
       949.230	     1.84481e+09	
       949.258	     1.88351e+09	
       949.269	     1.89787e+09	
       949.280	     1.91162e+09	
       949.330	     1.97861e+09	
       949.360	     2.01598e+09	
       949.430	     2.09993e+09	
       949.500	     2.18539e+09	
       949.640	     2.34950e+09	
       949.781	     2.52505e+09	
       949.795	     2.54211e+09	
       949.879	     2.64588e+09	
       949.921	     2.69742e+09	
       949.963	     2.75127e+09	
       950.131	     2.97571e+09	
       950.299	     3.19315e+09	
       950.383	     3.30788e+09	
       950.467	     3.42229e+09	
       950.635	     3.65238e+09	
       950.888	     3.99340e+09	
       951.140	     4.34897e+09	
       951.392	     4.72530e+09	
       951.644	     5.10776e+09	
       951.896	     5.50005e+09	
       952.023	     5.70036e+09	
       952.149	     5.90114e+09	
       952.275	     6.15026e+09	
       952.401	     6.40693e+09	
       952.568	     6.74632e+09	
       952.653	     6.91776e+09	
       952.738	     7.09032e+09	
       952.908	     7.43329e+09	
       953.249	     8.09771e+09	
       953.589	     8.78870e+09	
       953.759	     9.12950e+09	
       953.929	     9.46226e+09	
       954.099	     9.76702e+09	
       954.270	     1.00498e+10	
       954.440	     1.03263e+10	
       954.610	     1.05965e+10	
       954.950	     1.11161e+10	
       955.247	     1.15476e+10	
       955.290	     1.16082e+10	
       955.631	     1.20699e+10	
       956.014	     1.25349e+10	
       956.397	     1.29423e+10	
       956.781	     1.33105e+10	
       957.164	     1.36409e+10	
       957.547	     1.39336e+10	
       957.931	     1.41877e+10	
       958.314	     1.44030e+10	
       958.697	     1.45802e+10	
       958.872	     1.46480e+10	
       959.081	     1.47177e+10	
       959.289	     1.47756e+10	
       959.705	     1.48491e+10	
       959.813	     1.48599e+10	
       960.122	     1.48720e+10	
       960.430	     1.48569e+10	
       960.738	     1.48098e+10	
       961.046	     1.47348e+10	
       961.355	     1.46313e+10	
       961.663	     1.44993e+10	
       961.971	     1.43387e+10	
       962.279	     1.41490e+10	
       962.588	     1.39303e+10	
       962.896	     1.36848e+10	
       963.204	     1.34120e+10	
       963.512	     1.31120e+10	
       963.821	     1.27857e+10	
       964.027	     1.25533e+10	
       964.129	     1.24345e+10	
       964.231	     1.23131e+10	
       964.435	     1.20616e+10	
       964.843	     1.15314e+10	
       965.252	     1.09720e+10	
       965.660	     1.03883e+10	
       966.068	     9.78512e+09	
       966.477	     9.16999e+09	
       966.885	     8.54523e+09	
       967.371	     7.79872e+09	
       967.702	     7.29713e+09	
       968.032	     6.80265e+09	
       968.088	     6.71892e+09	
       968.390	     6.27125e+09	
       968.693	     5.82847e+09	
       968.995	     5.39440e+09	
       969.297	     4.96959e+09	
       969.599	     4.55145e+09	
       969.826	     4.24096e+09	
       969.876	     4.17345e+09	
       969.902	     4.14002e+09	
       969.927	     4.10666e+09	
       970.027	     3.97339e+09	
       970.227	     3.70881e+09	
       970.382	     3.50639e+09	
       970.628	     3.18881e+09	
       970.874	     2.87782e+09	
       970.893	     2.85336e+09	
       971.110	     2.58209e+09	
       971.120	     2.56951e+09	
       971.229	     2.43384e+09	
       971.348	     2.28906e+09	
       971.467	     2.14081e+09	
       971.585	     1.98457e+09	
       971.644	     1.89058e+09	
       971.703	     1.77991e+09	
       971.732	     1.70808e+09	
       971.762	     1.61646e+09	
       971.778	     1.56496e+09	
       971.792	     1.53037e+09	
       971.806	     1.49839e+09	
       971.821	     1.47649e+09	
       971.836	     1.46927e+09	
       971.851	     1.47662e+09	
       971.866	     1.49866e+09	
       971.880	     1.53078e+09	
       971.910	     1.61717e+09	
       971.969	     1.78127e+09	
       972.037	     1.90807e+09	
       972.087	     1.98731e+09	
       972.137	     2.05884e+09	
       972.150	     2.07628e+09	
       972.199	     2.13694e+09	
       972.237	     2.18544e+09	
       972.324	     2.29490e+09	
       972.499	     2.51197e+09	
       972.798	     2.89093e+09	
       973.097	     3.27382e+09	
       973.396	     3.66944e+09	
       973.545	     3.86875e+09	
       973.645	     4.00365e+09	
       973.696	     4.07135e+09	
       973.746	     4.13917e+09	
       973.946	     4.41497e+09	
       974.346	     4.97924e+09	
       974.746	     5.55842e+09	
       975.147	     6.15796e+09	
       975.454	     6.63052e+09	
       975.547	     6.77560e+09	
       975.640	     6.92168e+09	
       975.826	     7.21592e+09	
       976.198	     7.81675e+09	
       976.571	     8.43913e+09	
       976.943	     9.07647e+09	
       977.315	     9.72728e+09	
       977.688	     1.03892e+10	
       978.432	     1.17496e+10	
       979.049	     1.29054e+10	
       979.177	     1.31482e+10	
       979.305	     1.33913e+10	
       979.561	     1.38778e+10	
       980.073	     1.48543e+10	
       981.098	     1.68046e+10	
       982.372	     1.92150e+10	
       983.148	     2.06479e+10	
       983.923	     2.20447e+10	
       984.331	     2.27574e+10	
       984.699	     2.33907e+10	
       985.474	     2.46904e+10	
       986.618	     2.65148e+10	
       987.762	     2.82140e+10	
       988.500	     2.92434e+10	
       988.906	     2.97874e+10	
       989.312	     3.03141e+10	
       990.125	     3.13023e+10	
       990.937	     3.22221e+10	
       991.750	     3.30715e+10	
       992.563	     3.38503e+10	
       992.871	     3.41268e+10	
       993.375	     3.45563e+10	
       993.880	     3.49568e+10	
       994.888	     3.56360e+10	
       995.897	     3.61883e+10	
       996.906	     3.66109e+10	
       997.382	     3.67635e+10	
       997.574	     3.68166e+10	
       997.914	     3.68977e+10	
       998.447	     3.69916e+10	
       999.319	     3.70419e+10	
      1000.192	     3.69652e+10	
      1001.064	     3.67705e+10	
      1001.937	     3.64532e+10	
      1002.810	     3.60133e+10	
      1003.042	     3.58745e+10	
      1003.682	     3.54434e+10	
      1004.323	     3.49411e+10	
      1004.963	     3.43561e+10	
      1005.604	     3.37021e+10	
      1006.244	     3.29786e+10	
      1006.884	     3.21853e+10	
      1007.525	     3.13240e+10	
      1008.165	     3.03986e+10	
      1008.285	     3.02185e+10	
      1008.806	     2.94129e+10	
      1009.326	     2.85681e+10	
      1009.846	     2.76825e+10	
      1010.367	     2.67648e+10	
      1011.407	     2.48460e+10	
      1012.448	     2.28379e+10	
      1012.648	     2.24442e+10	
      1013.489	     2.07730e+10	
      1014.329	     1.90857e+10	
      1015.170	     1.74108e+10	
      1016.010	     1.57583e+10	
      1016.050	     1.56806e+10	
      1016.851	     1.41465e+10	
      1016.871	     1.41086e+10	
      1017.281	     1.33408e+10	
      1017.691	     1.25879e+10	
      1018.102	     1.18503e+10	
      1018.512	     1.11307e+10	
      1018.922	     1.04294e+10	
      1019.332	     9.74645e+09	
      1019.743	     9.08291e+09	
      1020.153	     8.43917e+09	
      1020.563	     7.81798e+09	
      1020.902	     7.31935e+09	
      1020.973	     7.21668e+09	
      1021.044	     7.11448e+09	
      1021.186	     6.91179e+09	
      1021.471	     6.51211e+09	
      1022.039	     5.73645e+09	
      1022.172	     5.55921e+09	
      1022.607	     4.98857e+09	
      1023.043	     4.43147e+09	
      1023.478	     3.88637e+09	
      1023.785	     3.50661e+09	
      1023.913	     3.34913e+09	
      1024.041	     3.19217e+09	
      1024.054	     3.17631e+09	
      1024.290	     2.88790e+09	
      1024.297	     2.87939e+09	
      1024.415	     2.73539e+09	
      1024.540	     2.58121e+09	
      1024.666	     2.42455e+09	
      1024.791	     2.25539e+09	
      1024.852	     2.14649e+09	
      1024.915	     1.99971e+09	
      1024.947	     1.88721e+09	
      1024.978	     1.74409e+09	
      1024.993	     1.67848e+09	
      1025.009	     1.61540e+09	
      1025.025	     1.57083e+09	
      1025.040	     1.54647e+09	
      1025.044	     1.54184e+09	
      1025.054	     1.53623e+09	
      1025.056	     1.53586e+09	
      1025.058	     1.53576e+09	
      1025.072	     1.54195e+09	
      1025.087	     1.56389e+09	
      1025.103	     1.60390e+09	
      1025.134	     1.72845e+09	
      1025.196	     1.98563e+09	
      1025.271	     2.16141e+09	
      1025.320	     2.24928e+09	
      1025.371	     2.32443e+09	
      1025.471	     2.45553e+09	
      1025.521	     2.51892e+09	
      1025.571	     2.58181e+09	
      1025.621	     2.64435e+09	
      1025.721	     2.76860e+09	
      1025.772	     2.83154e+09	
      1025.921	     3.01515e+09	
      1026.070	     3.19946e+09	
      1026.369	     3.56998e+09	
      1026.861	     4.18878e+09	
