# Koester WD models
# teff = 32000 K (value for the effective temperature for the model. Temperatures are given in K)
# logg = 9 log(cm/s2) (value for Log(G) for the model.)
#
#   WAVELENGTH	#           FLUX	
#   (ANGSTROM)	#  (ERG/CM2/S/A)	
##############	################	
       899.230	     6.21605e+09	
       904.235	     6.24677e+09	
       908.450	     6.27181e+09	
       909.241	     6.27637e+09	
       910.032	     6.28086e+09	
       911.193	     6.28724e+09	
       911.613	     6.28947e+09	
       912.034	     6.29164e+09	
       912.465	     6.29503e+09	
       912.875	     6.29811e+09	
       913.037	     6.29927e+09	
       913.241	     6.30072e+09	
       913.284	     6.30100e+09	
       913.478	     6.30229e+09	
       913.531	     6.30260e+09	
       913.755	     6.30395e+09	
       913.822	     6.30433e+09	
       914.080	     6.30565e+09	
       914.165	     6.30602e+09	
       914.499	     6.30725e+09	
       914.575	     6.30747e+09	
       915.071	     6.30791e+09	
       915.540	     6.30637e+09	
       915.609	     6.30596e+09	
       915.643	     6.30571e+09	
       915.677	     6.30756e+09	
       915.741	     6.31102e+09	
       915.813	     6.31492e+09	
       916.085	     6.32795e+09	
       916.429	     6.34052e+09	
       916.858	     6.35745e+09	
       917.118	     6.36015e+09	
       917.378	     6.36044e+09	
       917.639	     6.37150e+09	
       917.899	     6.37608e+09	
       918.159	     6.36854e+09	
       918.237	     6.36396e+09	
       918.420	     6.34910e+09	
       918.602	     6.33716e+09	
       918.681	     6.33980e+09	
       918.784	     6.34818e+09	
       918.966	     6.36279e+09	
       919.251	     6.36524e+09	
       919.537	     6.38067e+09	
       919.822	     6.36584e+09	
       919.999	     6.34212e+09	
       920.107	     6.32509e+09	
       920.215	     6.32167e+09	
       920.323	     6.35089e+09	
       920.432	     6.39336e+09	
       920.648	     6.47156e+09	
       920.864	     6.52914e+09	
       920.972	     6.54843e+09	
       921.080	     6.56216e+09	
       921.188	     6.56596e+09	
       921.296	     6.55924e+09	
       921.405	     6.54265e+09	
       921.513	     6.51500e+09	
       921.621	     6.48337e+09	
       921.729	     6.43241e+09	
       921.945	     6.32619e+09	
       922.161	     6.19422e+09	
       922.296	     6.10999e+09	
       922.351	     6.08457e+09	
       922.378	     6.07795e+09	
       922.405	     6.07707e+09	
       922.513	     6.12859e+09	
       922.621	     6.21570e+09	
       922.648	     6.23732e+09	
       922.729	     6.30339e+09	
       922.810	     6.36713e+09	
       922.972	     6.51265e+09	
       923.134	     6.64488e+09	
       923.297	     6.75138e+09	
       923.459	     6.83777e+09	
       923.621	     6.89878e+09	
       923.783	     6.92420e+09	
       923.945	     6.91263e+09	
       924.107	     6.87091e+09	
       924.269	     6.79841e+09	
       924.432	     6.67962e+09	
       924.594	     6.51529e+09	
       924.756	     6.34570e+09	
       924.918	     6.12994e+09	
       925.080	     5.90814e+09	
       925.326	     5.56910e+09	
       925.405	     5.46499e+09	
       925.484	     5.41139e+09	
       925.642	     5.59939e+09	
       925.800	     5.85502e+09	
       925.864	     5.96274e+09	
       925.958	     6.13044e+09	
       926.116	     6.39854e+09	
       926.369	     6.81025e+09	
       926.495	     7.02023e+09	
       926.621	     7.21303e+09	
       926.747	     7.37322e+09	
       926.873	     7.51569e+09	
       926.999	     7.64645e+09	
       927.125	     7.76404e+09	
       927.251	     7.85075e+09	
       927.378	     7.91066e+09	
       927.504	     7.94927e+09	
       927.630	     7.96906e+09	
       927.756	     7.95995e+09	
       927.882	     7.92039e+09	
       927.990	     7.86004e+09	
       928.008	     7.84742e+09	
       928.086	     7.80029e+09	
       928.134	     7.76831e+09	
       928.182	     7.73143e+09	
       928.375	     7.53203e+09	
       928.567	     7.23980e+09	
       928.759	     6.93233e+09	
       928.813	     6.84742e+09	
       928.951	     6.59090e+09	
       929.089	     6.27976e+09	
       929.125	     6.21775e+09	
       929.193	     6.09193e+09	
       929.227	     6.02470e+09	
       929.261	     5.95844e+09	
       929.398	     5.66310e+09	
       929.493	     5.46892e+09	
       929.524	     5.40464e+09	
       929.534	     5.38456e+09	
       929.543	     5.36392e+09	
       929.593	     5.24998e+09	
       929.617	     5.20091e+09	
       929.655	     5.12098e+09	
       929.693	     5.04358e+09	
       929.769	     4.87984e+09	
       929.827	     4.76090e+09	
       929.883	     4.64635e+09	
       929.910	     4.59496e+09	
       929.939	     4.54381e+09	
       929.954	     4.52050e+09	
       929.968	     4.50385e+09	
       929.982	     4.49113e+09	
       929.996	     4.48334e+09	
       930.010	     4.48101e+09	
       930.024	     4.48393e+09	
       930.038	     4.49229e+09	
       930.052	     4.50561e+09	
       930.081	     4.54683e+09	
       930.137	     4.65201e+09	
       930.201	     4.78644e+09	
       930.247	     4.88386e+09	
       930.249	     4.88816e+09	
       930.251	     4.89240e+09	
       930.301	     5.00273e+09	
       930.326	     5.05762e+09	
       930.329	     5.06453e+09	
       930.402	     5.22265e+09	
       930.478	     5.39949e+09	
       930.630	     5.73985e+09	
       930.781	     6.09937e+09	
       930.931	     6.42814e+09	
       931.081	     6.83878e+09	
       931.232	     7.19799e+09	
       931.383	     7.56282e+09	
       931.534	     7.93613e+09	
       931.684	     8.30543e+09	
       931.788	     8.53184e+09	
       931.832	     8.62179e+09	
       931.835	     8.62779e+09	
       931.838	     8.63372e+09	
       931.888	     8.73052e+09	
       931.988	     8.91040e+09	
       932.188	     9.31294e+09	
       932.389	     9.64337e+09	
       932.589	     9.90883e+09	
       932.789	     1.01205e+10	
       932.989	     1.02853e+10	
       933.189	     1.04019e+10	
       933.347	     1.04639e+10	
       933.375	     1.04714e+10	
       933.377	     1.04719e+10	
       933.389	     1.04747e+10	
       933.403	     1.04778e+10	
       933.432	     1.04821e+10	
       933.460	     1.04852e+10	
       933.542	     1.04875e+10	
       933.652	     1.04744e+10	
       933.762	     1.04409e+10	
       933.872	     1.03872e+10	
       933.982	     1.03163e+10	
       934.092	     1.02284e+10	
       934.202	     1.01186e+10	
       934.312	     9.98596e+09	
       934.413	     9.84713e+09	
       934.422	     9.83432e+09	
       934.533	     9.66410e+09	
       934.652	     9.45066e+09	
       934.771	     9.20810e+09	
       934.890	     8.95681e+09	
       935.009	     8.68038e+09	
       935.026	     8.63894e+09	
       935.128	     8.40731e+09	
       935.230	     8.20270e+09	
       935.332	     7.98184e+09	
       935.434	     7.74745e+09	
       935.537	     7.49729e+09	
       935.542	     7.48459e+09	
       935.639	     7.23748e+09	
       935.688	     7.11753e+09	
       935.843	     6.72895e+09	
       935.916	     6.55965e+09	
       936.030	     6.27565e+09	
       936.144	     5.96899e+09	
       936.258	     5.71079e+09	
       936.372	     5.44733e+09	
       936.486	     5.16302e+09	
       936.601	     4.92036e+09	
       936.779	     4.51064e+09	
       936.814	     4.42572e+09	
       936.829	     4.39465e+09	
       936.879	     4.27524e+09	
       936.887	     4.25557e+09	
       936.944	     4.10820e+09	
       936.973	     4.02639e+09	
       937.001	     3.93984e+09	
       937.015	     3.89586e+09	
       937.029	     3.85781e+09	
       937.043	     3.82618e+09	
       937.058	     3.80390e+09	
       937.072	     3.79705e+09	
       937.086	     3.80415e+09	
       937.101	     3.82671e+09	
       937.115	     3.85860e+09	
       937.143	     3.94116e+09	
       937.150	     3.96145e+09	
       937.186	     4.07238e+09	
       937.199	     4.10754e+09	
       937.250	     4.24096e+09	
       937.314	     4.39738e+09	
       937.341	     4.45261e+09	
       937.442	     4.68980e+09	
       937.543	     4.93142e+09	
       937.746	     5.40257e+09	
       937.896	     5.76130e+09	
       937.948	     5.88241e+09	
       938.000	     6.00424e+09	
       938.104	     6.29585e+09	
       938.208	     6.57074e+09	
       938.312	     6.82825e+09	
       938.416	     7.11407e+09	
       938.520	     7.39713e+09	
       938.543	     7.46213e+09	
       938.729	     7.98784e+09	
       938.914	     8.48462e+09	
       938.927	     8.51849e+09	
       939.099	     8.98964e+09	
       939.271	     9.55142e+09	
       939.443	     1.01031e+10	
       939.615	     1.06448e+10	
       939.788	     1.11528e+10	
       939.960	     1.16618e+10	
       940.132	     1.21396e+10	
       940.212	     1.23514e+10	
       940.304	     1.25988e+10	
       940.344	     1.27036e+10	
       940.476	     1.30360e+10	
       940.608	     1.33499e+10	
       940.740	     1.36450e+10	
       940.873	     1.39122e+10	
       941.005	     1.41640e+10	
       941.269	     1.46227e+10	
       941.533	     1.50407e+10	
       941.797	     1.54089e+10	
       942.062	     1.57208e+10	
       942.326	     1.59665e+10	
       942.590	     1.61534e+10	
       942.661	     1.61941e+10	
       942.854	     1.62833e+10	
       943.048	     1.63404e+10	
       943.241	     1.63578e+10	
       943.434	     1.63377e+10	
       943.627	     1.62798e+10	
       943.820	     1.61824e+10	
       944.013	     1.60441e+10	
       944.207	     1.58206e+10	
       944.400	     1.55354e+10	
       944.593	     1.51931e+10	
       944.651	     1.50791e+10	
       944.786	     1.48015e+10	
       944.815	     1.47428e+10	
       944.979	     1.43879e+10	
       945.143	     1.39926e+10	
       945.308	     1.35583e+10	
       945.472	     1.30916e+10	
       945.636	     1.25952e+10	
       945.800	     1.20690e+10	
       945.964	     1.15832e+10	
       946.128	     1.11424e+10	
       946.292	     1.06890e+10	
       946.457	     1.02483e+10	
       946.621	     9.79605e+09	
       946.740	     9.46075e+09	
       946.949	     8.87616e+09	
       947.158	     8.31652e+09	
       947.367	     7.77107e+09	
       947.489	     7.45041e+09	
       947.637	     7.05328e+09	
       947.786	     6.65879e+09	
       947.934	     6.28909e+09	
       948.083	     5.90176e+09	
       948.215	     5.57812e+09	
       948.232	     5.53753e+09	
       948.380	     5.17612e+09	
       948.546	     4.79347e+09	
       948.645	     4.55587e+09	
       948.661	     4.51742e+09	
       948.711	     4.40209e+09	
       948.777	     4.23257e+09	
       948.835	     4.07452e+09	
       948.893	     3.89721e+09	
       948.922	     3.79240e+09	
       948.951	     3.67419e+09	
       948.966	     3.61092e+09	
       948.980	     3.56420e+09	
       948.994	     3.52433e+09	
       949.009	     3.49684e+09	
       949.023	     3.48861e+09	
       949.037	     3.49706e+09	
       949.052	     3.52480e+09	
       949.066	     3.56489e+09	
       949.095	     3.67541e+09	
       949.153	     3.89950e+09	
       949.230	     4.13352e+09	
       949.258	     4.20879e+09	
       949.269	     4.23707e+09	
       949.280	     4.26396e+09	
       949.330	     4.39515e+09	
       949.360	     4.46816e+09	
       949.430	     4.63429e+09	
       949.500	     4.80277e+09	
       949.640	     5.12567e+09	
       949.781	     5.47435e+09	
       949.795	     5.50793e+09	
       949.879	     5.71380e+09	
       949.921	     5.81616e+09	
       949.963	     5.92303e+09	
       950.131	     6.36578e+09	
       950.299	     6.79360e+09	
       950.383	     7.02303e+09	
       950.467	     7.25180e+09	
       950.635	     7.71120e+09	
       950.888	     8.39204e+09	
       951.140	     9.10531e+09	
       951.392	     9.85797e+09	
       951.644	     1.06148e+10	
       951.896	     1.13943e+10	
       952.023	     1.17933e+10	
       952.149	     1.21923e+10	
       952.275	     1.26851e+10	
       952.401	     1.31899e+10	
       952.568	     1.38534e+10	
       952.653	     1.41869e+10	
       952.738	     1.45214e+10	
       952.908	     1.51823e+10	
       953.249	     1.64527e+10	
       953.589	     1.77688e+10	
       953.759	     1.84122e+10	
       953.929	     1.90373e+10	
       954.099	     1.96079e+10	
       954.270	     2.01356e+10	
       954.610	     2.11486e+10	
       954.950	     2.21015e+10	
       955.290	     2.29983e+10	
       955.631	     2.38310e+10	
       955.842	     2.43089e+10	
       955.928	     2.44878e+10	
       955.971	     2.45758e+10	
       956.014	     2.46629e+10	
       956.186	     2.49953e+10	
       956.530	     2.56151e+10	
       956.875	     2.61762e+10	
       957.219	     2.66822e+10	
       957.563	     2.71318e+10	
       957.908	     2.75253e+10	
       958.252	     2.78638e+10	
       958.596	     2.81482e+10	
       958.941	     2.83774e+10	
       959.239	     2.85310e+10	
       959.281	     2.85493e+10	
       959.285	     2.85510e+10	
       959.289	     2.85526e+10	
       959.339	     2.85716e+10	
       959.439	     2.86058e+10	
       959.639	     2.86599e+10	
       959.649	     2.86621e+10	
       960.039	     2.87075e+10	
       960.430	     2.86773e+10	
       960.820	     2.85602e+10	
       961.210	     2.83655e+10	
       961.601	     2.80919e+10	
       961.991	     2.77388e+10	
       962.381	     2.73042e+10	
       962.772	     2.67894e+10	
       963.162	     2.61960e+10	
       963.552	     2.55229e+10	
       963.654	     2.53339e+10	
       963.943	     2.47721e+10	
       964.231	     2.41695e+10	
       964.519	     2.35248e+10	
       964.807	     2.28445e+10	
       965.096	     2.21311e+10	
       965.384	     2.13931e+10	
       965.960	     1.98385e+10	
       966.537	     1.82108e+10	
       967.113	     1.65290e+10	
       967.347	     1.58382e+10	
       967.690	     1.48314e+10	
       968.032	     1.38332e+10	
       968.136	     1.35300e+10	
       968.717	     1.18513e+10	
       969.297	     1.02198e+10	
       969.730	     9.03374e+09	
       969.828	     8.76812e+09	
       969.877	     8.63684e+09	
       969.927	     8.50699e+09	
       970.123	     7.99033e+09	
       970.156	     7.90406e+09	
       970.335	     7.43744e+09	
       970.515	     6.97531e+09	
       970.694	     6.52744e+09	
       970.874	     6.08373e+09	
       971.119	     5.48431e+09	
       971.234	     5.20524e+09	
       971.348	     4.93459e+09	
       971.535	     4.47831e+09	
       971.567	     4.39204e+09	
       971.576	     4.36685e+09	
       971.585	     4.34124e+09	
       971.635	     4.18897e+09	
       971.644	     4.15893e+09	
       971.703	     3.94446e+09	
       971.732	     3.80076e+09	
       971.762	     3.60960e+09	
       971.778	     3.49540e+09	
       971.792	     3.41906e+09	
       971.806	     3.35173e+09	
       971.821	     3.30448e+09	
       971.836	     3.28871e+09	
       971.851	     3.30474e+09	
       971.866	     3.35217e+09	
       971.880	     3.41972e+09	
       971.910	     3.61073e+09	
       971.969	     3.94659e+09	
       972.037	     4.19233e+09	
       972.087	     4.34551e+09	
       972.137	     4.48349e+09	
       972.150	     4.51723e+09	
       972.199	     4.63463e+09	
       972.237	     4.73020e+09	
       972.324	     4.94336e+09	
       972.499	     5.36502e+09	
       972.798	     6.10251e+09	
       973.097	     6.84770e+09	
       973.396	     7.62524e+09	
       973.545	     8.01725e+09	
       973.645	     8.28306e+09	
       973.696	     8.41658e+09	
       973.746	     8.55028e+09	
       973.946	     9.09435e+09	
       974.346	     1.02051e+10	
       974.746	     1.13421e+10	
       975.147	     1.25145e+10	
       975.454	     1.34330e+10	
       975.547	     1.37141e+10	
       975.640	     1.39960e+10	
       975.826	     1.45633e+10	
       976.198	     1.57140e+10	
       976.571	     1.68952e+10	
       976.943	     1.80917e+10	
       977.688	     2.05131e+10	
       978.432	     2.29682e+10	
       979.049	     2.50097e+10	
       979.177	     2.54331e+10	
       979.305	     2.58559e+10	
       979.561	     2.66972e+10	
       980.073	     2.83649e+10	
       981.098	     3.16242e+10	
       982.123	     3.47831e+10	
       982.372	     3.55292e+10	
       983.148	     3.77921e+10	
       983.923	     3.99589e+10	
       984.699	     4.20087e+10	
       985.474	     4.39556e+10	
       985.882	     4.49358e+10	
       986.250	     4.57975e+10	
       986.618	     4.66382e+10	
       987.355	     4.82363e+10	
       988.091	     4.97396e+10	
       988.344	     5.02334e+10	
       988.828	     5.11517e+10	
       989.312	     5.20295e+10	
       990.281	     5.36323e+10	
       991.250	     5.50806e+10	
       992.218	     5.63781e+10	
       992.495	     5.67208e+10	
       993.187	     5.75257e+10	
       993.880	     5.82536e+10	
       994.572	     5.88675e+10	
       995.264	     5.94012e+10	
       995.957	     5.98533e+10	
       996.649	     6.02240e+10	
       997.342	     6.05112e+10	
       997.622	     6.06032e+10	
       998.034	     6.07128e+10	
       998.447	     6.07917e+10	
       999.127	     6.08332e+10	
       999.223	     6.08319e+10	
       999.271	     6.08307e+10	
       999.319	     6.08291e+10	
       999.511	     6.08128e+10	
       999.896	     6.07584e+10	
      1000.663	     6.05621e+10	
      1001.432	     6.02448e+10	
      1002.200	     5.98034e+10	
      1002.969	     5.92350e+10	
      1003.150	     5.90808e+10	
      1003.736	     5.85323e+10	
      1004.323	     5.79030e+10	
      1004.909	     5.71720e+10	
      1005.495	     5.63602e+10	
      1006.081	     5.54658e+10	
      1006.667	     5.44878e+10	
      1007.254	     5.34256e+10	
      1007.840	     5.22796e+10	
      1008.425	     5.10534e+10	
      1008.698	     5.04565e+10	
      1009.012	     4.97452e+10	
      1009.326	     4.90114e+10	
      1009.954	     4.74666e+10	
      1010.583	     4.58384e+10	
      1011.210	     4.41328e+10	
      1011.839	     4.23553e+10	
      1012.467	     4.05105e+10	
      1013.095	     3.86102e+10	
      1013.117	     3.85423e+10	
      1013.723	     3.66611e+10	
      1014.329	     3.47419e+10	
      1015.541	     3.08553e+10	
      1016.599	     2.74459e+10	
      1017.282	     2.52532e+10	
      1017.965	     2.30889e+10	
      1018.649	     2.09644e+10	
      1019.332	     1.88911e+10	
      1020.016	     1.68774e+10	
      1020.354	     1.59092e+10	
      1020.699	     1.49409e+10	
      1021.044	     1.39936e+10	
      1021.390	     1.30642e+10	
      1021.735	     1.21536e+10	
      1022.080	     1.12610e+10	
      1022.424	     1.03862e+10	
      1022.497	     1.02052e+10	
      1022.769	     9.52754e+09	
      1023.043	     8.86105e+09	
      1023.136	     8.63652e+09	
      1023.588	     7.55663e+09	
      1024.041	     6.49970e+09	
      1024.354	     5.77783e+09	
      1024.447	     5.56461e+09	
      1024.494	     5.45723e+09	
      1024.540	     5.34888e+09	
      1024.662	     5.06192e+09	
      1024.667	     5.05014e+09	
      1024.727	     4.90268e+09	
      1024.791	     4.73268e+09	
      1024.852	     4.52691e+09	
      1024.915	     4.24787e+09	
      1024.947	     4.02180e+09	
      1024.978	     3.71028e+09	
      1024.993	     3.56963e+09	
      1025.009	     3.42550e+09	
      1025.025	     3.31620e+09	
      1025.040	     3.25516e+09	
      1025.044	     3.24363e+09	
      1025.054	     3.22927e+09	
      1025.056	     3.22833e+09	
      1025.058	     3.22808e+09	
      1025.072	     3.24379e+09	
      1025.087	     3.29839e+09	
      1025.103	     3.39754e+09	
      1025.134	     3.67676e+09	
      1025.196	     4.21982e+09	
      1025.271	     4.55430e+09	
      1025.320	     4.72009e+09	
      1025.371	     4.86092e+09	
      1025.471	     5.10961e+09	
      1025.521	     5.22924e+09	
      1025.571	     5.34718e+09	
      1025.621	     5.46474e+09	
      1025.721	     5.69706e+09	
      1025.772	     5.81490e+09	
