# Koester WD models
# teff = 32000 K (value for the effective temperature for the model. Temperatures are given in K)
# logg = 9.25 log(cm/s2) (value for Log(G) for the model.)
#
#   WAVELENGTH	#           FLUX	
#   (ANGSTROM)	#  (ERG/CM2/S/A)	
##############	################	
       899.230	     6.42047e+09	
       904.235	     6.45066e+09	
       908.450	     6.47520e+09	
       909.241	     6.47966e+09	
       910.032	     6.48403e+09	
       911.193	     6.49028e+09	
       911.613	     6.49245e+09	
       912.034	     6.49455e+09	
       912.465	     6.49747e+09	
       912.875	     6.50011e+09	
       913.037	     6.50112e+09	
       913.241	     6.50234e+09	
       913.284	     6.50259e+09	
       913.478	     6.50373e+09	
       913.531	     6.50401e+09	
       913.755	     6.50520e+09	
       913.822	     6.50555e+09	
       914.080	     6.50674e+09	
       914.165	     6.50709e+09	
       914.499	     6.50831e+09	
       914.575	     6.50853e+09	
       915.071	     6.50932e+09	
       915.540	     6.50869e+09	
       915.609	     6.50847e+09	
       915.643	     6.50837e+09	
       915.677	     6.50969e+09	
       915.741	     6.51221e+09	
       915.813	     6.51497e+09	
       916.085	     6.52440e+09	
       916.429	     6.53414e+09	
       916.858	     6.54589e+09	
       917.118	     6.54843e+09	
       917.196	     6.54865e+09	
       917.378	     6.54981e+09	
       917.548	     6.55390e+09	
       917.899	     6.55911e+09	
       917.952	     6.55886e+09	
       918.250	     6.55079e+09	
       918.276	     6.54934e+09	
       918.602	     6.53486e+09	
       918.927	     6.54661e+09	
       919.251	     6.54720e+09	
       919.587	     6.56455e+09	
       919.901	     6.55371e+09	
       920.058	     6.54246e+09	
       920.215	     6.53960e+09	
       920.373	     6.57136e+09	
       920.530	     6.61142e+09	
       920.687	     6.64846e+09	
       920.844	     6.67478e+09	
       921.001	     6.69200e+09	
       921.158	     6.69913e+09	
       921.315	     6.69357e+09	
       921.473	     6.67054e+09	
       921.630	     6.64136e+09	
       921.787	     6.59392e+09	
       921.798	     6.59031e+09	
       921.944	     6.53929e+09	
       922.101	     6.47536e+09	
       922.253	     6.41350e+09	
       922.405	     6.37721e+09	
       922.556	     6.43386e+09	
       922.606	     6.46053e+09	
       922.708	     6.51645e+09	
       922.810	     6.57177e+09	
       923.014	     6.70174e+09	
       923.218	     6.81402e+09	
       923.423	     6.89510e+09	
       923.525	     6.92577e+09	
       923.627	     6.95018e+09	
       923.729	     6.96419e+09	
       923.831	     6.96648e+09	
       923.933	     6.95910e+09	
       924.035	     6.93818e+09	
       924.137	     6.91678e+09	
       924.239	     6.88015e+09	
       924.342	     6.83683e+09	
       924.444	     6.77550e+09	
       924.546	     6.69492e+09	
       924.648	     6.62443e+09	
       924.852	     6.44268e+09	
       925.037	     6.25764e+09	
       925.056	     6.23389e+09	
       925.149	     6.14049e+09	
       925.260	     6.02488e+09	
       925.373	     5.91436e+09	
       925.484	     5.85040e+09	
       925.595	     5.93770e+09	
       925.707	     6.07411e+09	
       925.818	     6.21885e+09	
       925.930	     6.36886e+09	
       925.938	     6.38076e+09	
       926.153	     6.66662e+09	
       926.369	     6.93236e+09	
       926.477	     7.07144e+09	
       926.584	     7.20125e+09	
       926.692	     7.31215e+09	
       926.799	     7.41136e+09	
       926.907	     7.49835e+09	
       927.014	     7.58421e+09	
       927.122	     7.65773e+09	
       927.229	     7.71349e+09	
       927.338	     7.75364e+09	
       927.445	     7.78000e+09	
       927.553	     7.79888e+09	
       927.660	     7.80281e+09	
       927.768	     7.78889e+09	
       927.875	     7.75628e+09	
       927.983	     7.70309e+09	
       927.998	     7.69360e+09	
       928.090	     7.64547e+09	
       928.182	     7.59134e+09	
       928.367	     7.43904e+09	
       928.551	     7.21102e+09	
       928.735	     6.96695e+09	
       928.749	     6.94509e+09	
       928.919	     6.70485e+09	
       929.089	     6.39097e+09	
       929.211	     6.19780e+09	
       929.257	     6.12281e+09	
       929.259	     6.11948e+09	
       929.261	     6.11615e+09	
       929.312	     6.02759e+09	
       929.412	     5.83469e+09	
       929.419	     5.81986e+09	
       929.481	     5.71572e+09	
       929.512	     5.66112e+09	
       929.543	     5.60576e+09	
       929.565	     5.56294e+09	
       929.655	     5.39493e+09	
       929.667	     5.37552e+09	
       929.769	     5.18818e+09	
       929.827	     5.08652e+09	
       929.883	     4.98989e+09	
       929.910	     4.94795e+09	
       929.939	     4.90811e+09	
       929.954	     4.89089e+09	
       929.968	     4.87908e+09	
       929.982	     4.87019e+09	
       929.996	     4.86491e+09	
       930.010	     4.86350e+09	
       930.024	     4.86582e+09	
       930.038	     4.87204e+09	
       930.052	     4.88188e+09	
       930.081	     4.91292e+09	
       930.137	     4.99887e+09	
       930.201	     5.11486e+09	
       930.247	     5.19978e+09	
       930.249	     5.20364e+09	
       930.251	     5.20747e+09	
       930.301	     5.30530e+09	
       930.326	     5.35302e+09	
       930.329	     5.35912e+09	
       930.402	     5.49904e+09	
       930.478	     5.65609e+09	
       930.630	     5.95970e+09	
       930.781	     6.27527e+09	
       930.931	     6.56935e+09	
       931.081	     6.92542e+09	
       931.232	     7.22943e+09	
       931.383	     7.54909e+09	
       931.534	     7.86881e+09	
       931.684	     8.17468e+09	
       931.788	     8.36182e+09	
       931.832	     8.43606e+09	
       931.835	     8.44102e+09	
       931.838	     8.44595e+09	
       931.888	     8.52594e+09	
       931.988	     8.67450e+09	
       932.188	     9.01423e+09	
       932.389	     9.28897e+09	
       932.589	     9.50652e+09	
       932.789	     9.67871e+09	
       932.989	     9.81333e+09	
       933.189	     9.90620e+09	
       933.347	     9.95341e+09	
       933.375	     9.95872e+09	
       933.377	     9.95907e+09	
       933.389	     9.96105e+09	
       933.403	     9.96315e+09	
       933.432	     9.96604e+09	
       933.460	     9.96787e+09	
       933.542	     9.96746e+09	
       933.652	     9.95323e+09	
       933.762	     9.92184e+09	
       933.872	     9.87318e+09	
       933.982	     9.80978e+09	
       934.092	     9.73177e+09	
       934.202	     9.63486e+09	
       934.312	     9.51827e+09	
       934.413	     9.39829e+09	
       934.422	     9.38749e+09	
       934.533	     9.24354e+09	
       934.652	     9.06205e+09	
       934.771	     8.85389e+09	
       934.890	     8.63197e+09	
       935.009	     8.38516e+09	
       935.026	     8.34787e+09	
       935.128	     8.14062e+09	
       935.230	     7.96168e+09	
       935.332	     7.76752e+09	
       935.434	     7.56285e+09	
       935.537	     7.34376e+09	
       935.639	     7.11291e+09	
       935.741	     6.88288e+09	
       935.746	     6.87126e+09	
       935.945	     6.44290e+09	
       936.144	     5.98090e+09	
       936.343	     5.56935e+09	
       936.484	     5.25158e+09	
       936.542	     5.14244e+09	
       936.601	     5.02711e+09	
       936.605	     5.01873e+09	
       936.717	     4.77930e+09	
       936.829	     4.54928e+09	
       936.894	     4.40624e+09	
       936.938	     4.30360e+09	
       936.941	     4.29559e+09	
       936.944	     4.28727e+09	
       936.973	     4.21297e+09	
       936.987	     4.17423e+09	
       936.994	     4.15419e+09	
       937.001	     4.13635e+09	
       937.015	     4.09752e+09	
       937.029	     4.06434e+09	
       937.043	     4.03644e+09	
       937.058	     4.01662e+09	
       937.072	     4.01046e+09	
       937.086	     4.01687e+09	
       937.101	     4.03701e+09	
       937.115	     4.06516e+09	
       937.143	     4.13773e+09	
       937.150	     4.15573e+09	
       937.186	     4.25450e+09	
       937.199	     4.28702e+09	
       937.250	     4.40995e+09	
       937.314	     4.55248e+09	
       937.341	     4.60448e+09	
       937.442	     4.81616e+09	
       937.543	     5.03908e+09	
       937.645	     5.23644e+09	
       937.746	     5.47130e+09	
       937.847	     5.68861e+09	
       937.896	     5.79470e+09	
       937.948	     5.90726e+09	
       938.000	     6.01995e+09	
       938.104	     6.28297e+09	
       938.208	     6.52691e+09	
       938.312	     6.75292e+09	
       938.416	     7.01716e+09	
       938.520	     7.27810e+09	
       938.543	     7.33710e+09	
       938.729	     7.80648e+09	
       938.914	     8.25146e+09	
       938.927	     8.28187e+09	
       939.099	     8.70787e+09	
       939.271	     9.21768e+09	
       939.443	     9.70592e+09	
       939.615	     1.01738e+10	
       939.788	     1.06098e+10	
       939.960	     1.10583e+10	
       940.132	     1.14775e+10	
       940.304	     1.18771e+10	
       940.476	     1.22556e+10	
       940.556	     1.24212e+10	
       940.648	     1.26042e+10	
       940.740	     1.27791e+10	
       940.925	     1.30979e+10	
       941.109	     1.33892e+10	
       941.293	     1.36551e+10	
       941.477	     1.39089e+10	
       941.661	     1.41421e+10	
       941.845	     1.43508e+10	
       942.030	     1.45355e+10	
       942.214	     1.46916e+10	
       942.398	     1.48206e+10	
       942.485	     1.48726e+10	
       942.582	     1.49242e+10	
       942.766	     1.50031e+10	
       943.048	     1.50744e+10	
       943.329	     1.50750e+10	
       943.610	     1.50068e+10	
       943.750	     1.49454e+10	
       943.891	     1.48650e+10	
       944.031	     1.47651e+10	
       944.173	     1.46203e+10	
       944.313	     1.44484e+10	
       944.454	     1.42506e+10	
       944.594	     1.40268e+10	
       944.725	     1.37956e+10	
       944.735	     1.37769e+10	
       944.870	     1.35387e+10	
       945.016	     1.32606e+10	
       945.161	     1.29557e+10	
       945.308	     1.26239e+10	
       945.454	     1.22690e+10	
       945.599	     1.18919e+10	
       945.745	     1.14917e+10	
       945.890	     1.10772e+10	
       946.036	     1.07335e+10	
       946.181	     1.03797e+10	
       946.473	     9.68264e+09	
       946.952	     8.50131e+09	
       947.055	     8.24165e+09	
       947.158	     8.00468e+09	
       947.261	     7.76366e+09	
       947.468	     7.27634e+09	
       947.677	     6.76950e+09	
       947.880	     6.30216e+09	
       948.083	     5.83309e+09	
       948.286	     5.38441e+09	
       948.433	     5.04829e+09	
       948.489	     4.93463e+09	
       948.546	     4.81870e+09	
       948.658	     4.56725e+09	
       948.727	     4.42066e+09	
       948.761	     4.33731e+09	
       948.763	     4.33288e+09	
       948.770	     4.31708e+09	
       948.777	     4.30087e+09	
       948.827	     4.17599e+09	
       948.835	     4.15400e+09	
       948.893	     3.98712e+09	
       948.922	     3.89174e+09	
       948.951	     3.78801e+09	
       948.966	     3.73485e+09	
       948.980	     3.69615e+09	
       948.994	     3.66366e+09	
       949.009	     3.64183e+09	
       949.023	     3.63536e+09	
       949.037	     3.64205e+09	
       949.052	     3.66413e+09	
       949.066	     3.69687e+09	
       949.095	     3.78923e+09	
       949.153	     3.98945e+09	
       949.230	     4.20989e+09	
       949.258	     4.27875e+09	
       949.269	     4.30540e+09	
       949.280	     4.33091e+09	
       949.330	     4.45214e+09	
       949.360	     4.51805e+09	
       949.430	     4.67208e+09	
       949.500	     4.82803e+09	
       949.640	     5.12746e+09	
       949.781	     5.44554e+09	
       949.795	     5.47548e+09	
       949.879	     5.66347e+09	
       949.921	     5.75709e+09	
       949.963	     5.85433e+09	
       950.047	     6.05580e+09	
       950.131	     6.25076e+09	
       950.467	     7.05005e+09	
       950.677	     7.56750e+09	
       950.888	     8.07876e+09	
       951.098	     8.61038e+09	
       951.308	     9.16987e+09	
       951.518	     9.72816e+09	
       951.623	     1.00009e+10	
       951.728	     1.02711e+10	
       951.833	     1.05693e+10	
       951.939	     1.08675e+10	
       952.044	     1.11664e+10	
       952.149	     1.14654e+10	
       952.254	     1.18255e+10	
       952.359	     1.21951e+10	
       952.400	     1.23382e+10	
       952.464	     1.25605e+10	
       952.569	     1.29219e+10	
       952.738	     1.34952e+10	
       953.076	     1.46113e+10	
       953.415	     1.57117e+10	
       953.753	     1.68408e+10	
       953.922	     1.73811e+10	
       954.091	     1.78807e+10	
       954.261	     1.83454e+10	
       954.430	     1.87961e+10	
       954.599	     1.92328e+10	
       954.768	     1.96552e+10	
       954.937	     2.00684e+10	
       955.106	     2.04700e+10	
       955.275	     2.08578e+10	
       955.445	     2.12314e+10	
       955.552	     2.14602e+10	
       955.783	     2.19343e+10	
       956.014	     2.23550e+10	
       956.245	     2.27438e+10	
       956.708	     2.34497e+10	
       957.170	     2.40635e+10	
       957.632	     2.45887e+10	
       958.095	     2.50262e+10	
       958.557	     2.53775e+10	
       958.750	     2.54986e+10	
       959.020	     2.56419e+10	
       959.289	     2.57554e+10	
       959.558	     2.58320e+10	
       959.827	     2.58776e+10	
       960.302	     2.58807e+10	
       960.366	     2.58737e+10	
       960.430	     2.58649e+10	
       960.558	     2.58390e+10	
       960.814	     2.57656e+10	
       961.327	     2.55310e+10	
       961.839	     2.51775e+10	
       962.351	     2.47019e+10	
       962.864	     2.41071e+10	
       963.120	     2.37664e+10	
       963.376	     2.33955e+10	
       963.546	     2.31326e+10	
       963.632	     2.29947e+10	
       963.889	     2.25646e+10	
       964.231	     2.19470e+10	
       964.573	     2.12774e+10	
       964.915	     2.05637e+10	
       965.258	     1.98138e+10	
       965.600	     1.90301e+10	
       965.942	     1.82160e+10	
       966.285	     1.73825e+10	
       966.969	     1.56526e+10	
       967.275	     1.48606e+10	
       967.654	     1.38785e+10	
       968.032	     1.29056e+10	
       968.280	     1.22676e+10	
       968.789	     1.09679e+10	
       969.297	     9.69938e+09	
       969.684	     8.75254e+09	
       969.805	     8.45717e+09	
       969.927	     8.16604e+09	
       970.169	     7.59185e+09	
       970.411	     7.02507e+09	
       970.432	     6.97575e+09	
       970.653	     6.46973e+09	
       970.843	     6.04779e+09	
       970.874	     5.97782e+09	
       971.095	     5.48777e+09	
       971.110	     5.45490e+09	
       971.348	     4.92818e+09	
       971.467	     4.65553e+09	
       971.585	     4.37778e+09	
       971.644	     4.20675e+09	
       971.703	     4.00028e+09	
       971.732	     3.86391e+09	
       971.762	     3.68722e+09	
       971.778	     3.58427e+09	
       971.792	     3.51287e+09	
       971.806	     3.45145e+09	
       971.821	     3.40857e+09	
       971.836	     3.39402e+09	
       971.851	     3.40879e+09	
       971.866	     3.45189e+09	
       971.880	     3.51353e+09	
       971.910	     3.68839e+09	
       971.969	     4.00248e+09	
       972.037	     4.23901e+09	
       972.087	     4.38205e+09	
       972.137	     4.51051e+09	
       972.150	     4.54133e+09	
       972.199	     4.64855e+09	
       972.237	     4.73828e+09	
       972.324	     4.93695e+09	
       972.499	     5.32786e+09	
       972.798	     5.99655e+09	
       973.047	     6.55628e+09	
       973.396	     7.37451e+09	
       973.746	     8.20904e+09	
       974.095	     9.06868e+09	
       974.444	     9.93651e+09	
       974.645	     1.04450e+10	
       974.793	     1.08268e+10	
       975.143	     1.17387e+10	
       975.640	     1.30624e+10	
       976.137	     1.44101e+10	
       976.635	     1.58022e+10	
       977.132	     1.72107e+10	
       977.630	     1.86246e+10	
       977.944	     1.95298e+10	
       978.624	     2.14960e+10	
       979.305	     2.34674e+10	
       979.985	     2.54129e+10	
       980.666	     2.73238e+10	
       981.346	     2.92012e+10	
       982.027	     3.10431e+10	
       982.707	     3.28312e+10	
       982.853	     3.32047e+10	
       983.388	     3.45597e+10	
       983.923	     3.58751e+10	
       984.994	     3.83686e+10	
       985.511	     3.95143e+10	
       986.065	     4.06968e+10	
       986.618	     4.18360e+10	
       987.725	     4.39675e+10	
       988.352	     4.50925e+10	
       988.832	     4.59166e+10	
       989.312	     4.67067e+10	
       990.273	     4.81575e+10	
       991.234	     4.94732e+10	
       992.194	     5.06585e+10	
       992.430	     5.09299e+10	
       993.155	     5.17128e+10	
       993.880	     5.24190e+10	
       994.604	     5.30150e+10	
       995.329	     5.35309e+10	
       996.053	     5.39653e+10	
       996.778	     5.43175e+10	
       997.502	     5.45845e+10	
       998.006	     5.47190e+10	
       998.227	     5.47642e+10	
       998.447	     5.48010e+10	
       998.455	     5.48023e+10	
       998.887	     5.48393e+10	
       999.319	     5.48434e+10	
      1000.184	     5.47309e+10	
      1001.048	     5.44793e+10	
      1001.913	     5.40822e+10	
      1002.778	     5.35390e+10	
      1002.962	     5.34036e+10	
      1003.642	     5.28413e+10	
      1004.323	     5.21803e+10	
      1005.003	     5.13993e+10	
      1005.684	     5.05190e+10	
      1006.364	     4.95382e+10	
      1007.044	     4.84566e+10	
      1007.485	     4.77038e+10	
      1007.725	     4.72750e+10	
      1008.405	     4.59945e+10	
      1009.326	     4.41120e+10	
      1010.247	     4.20502e+10	
      1011.167	     3.98429e+10	
      1012.088	     3.75037e+10	
      1013.008	     3.50542e+10	
      1013.529	     3.36301e+10	
      1013.929	     3.25183e+10	
      1014.129	     3.19579e+10	
      1014.329	     3.13955e+10	
      1015.130	     2.91366e+10	
      1015.430	     2.82838e+10	
      1016.731	     2.45983e+10	
      1017.381	     2.27711e+10	
      1018.031	     2.09665e+10	
      1018.682	     1.91943e+10	
      1019.332	     1.74610e+10	
      1019.983	     1.57707e+10	
      1020.222	     1.51629e+10	
      1020.633	     1.41346e+10	
      1021.044	     1.31297e+10	
      1021.456	     1.21460e+10	
      1021.514	     1.20086e+10	
      1021.867	     1.11821e+10	
      1021.896	     1.11145e+10	
      1022.278	     1.02380e+10	
      1022.660	     9.37674e+09	
      1023.043	     8.53106e+09	
      1023.425	     7.70158e+09	
      1023.573	     7.38416e+09	
      1023.807	     6.88486e+09	
      1024.041	     6.39009e+09	
      1024.417	     5.59961e+09	
      1024.478	     5.46857e+09	
      1024.509	     5.40143e+09	
      1024.536	     5.34181e+09	
      1024.540	     5.33414e+09	
      1024.664	     5.06186e+09	
      1024.667	     5.05558e+09	
      1024.791	     4.75606e+09	
      1024.852	     4.56043e+09	
      1024.915	     4.28761e+09	
      1024.947	     4.07128e+09	
      1024.978	     3.77604e+09	
      1024.993	     3.64861e+09	
      1025.009	     3.50897e+09	
      1025.025	     3.40580e+09	
      1025.040	     3.34793e+09	
      1025.044	     3.33681e+09	
      1025.054	     3.32305e+09	
      1025.056	     3.32211e+09	
      1025.058	     3.32189e+09	
      1025.072	     3.33700e+09	
      1025.087	     3.38924e+09	
      1025.103	     3.48434e+09	
      1025.134	     3.74475e+09	
      1025.196	     4.26053e+09	
      1025.271	     4.58742e+09	
      1025.320	     4.74443e+09	
      1025.371	     4.87713e+09	
      1025.471	     5.11162e+09	
      1025.521	     5.22290e+09	
      1025.571	     5.33301e+09	
      1025.621	     5.44303e+09	
      1025.721	     5.65779e+09	
      1025.772	     5.76608e+09	
      1025.921	     6.08190e+09	
      1026.070	     6.39745e+09	
      1026.369	     7.03286e+09	
      1026.861	     8.09736e+09	
      1026.965	     8.32513e+09	
      1027.069	     8.55393e+09	
      1027.277	     9.01540e+09	
      1027.693	     9.95219e+09	
