# Koester WD models
# teff = 32000 K (value for the effective temperature for the model. Temperatures are given in K)
# logg = 9.5 log(cm/s2) (value for Log(G) for the model.)
#
#   WAVELENGTH	#           FLUX	
#   (ANGSTROM)	#  (ERG/CM2/S/A)	
##############	################	
       899.230	     6.63266e+09	
       904.235	     6.66231e+09	
       908.450	     6.68631e+09	
       909.241	     6.69068e+09	
       910.032	     6.69495e+09	
       911.193	     6.70102e+09	
       911.613	     6.70315e+09	
       912.034	     6.70523e+09	
       912.465	     6.70777e+09	
       912.875	     6.71010e+09	
       913.037	     6.71098e+09	
       913.241	     6.71208e+09	
       913.284	     6.71230e+09	
       913.478	     6.71330e+09	
       913.531	     6.71355e+09	
       913.755	     6.71462e+09	
       913.822	     6.71493e+09	
       914.080	     6.71603e+09	
       914.165	     6.71638e+09	
       914.499	     6.71757e+09	
       914.575	     6.71782e+09	
       915.071	     6.71889e+09	
       915.540	     6.71896e+09	
       915.609	     6.71889e+09	
       915.643	     6.71886e+09	
       915.677	     6.71980e+09	
       915.741	     6.72159e+09	
       915.813	     6.72354e+09	
       916.085	     6.73030e+09	
       916.429	     6.73771e+09	
       916.858	     6.74569e+09	
       917.118	     6.74798e+09	
       917.196	     6.74849e+09	
       917.378	     6.74981e+09	
       917.899	     6.75496e+09	
       917.952	     6.75480e+09	
       918.602	     6.74092e+09	
       919.251	     6.74377e+09	
       919.587	     6.75995e+09	
       919.901	     6.75829e+09	
       920.058	     6.75449e+09	
       920.215	     6.75603e+09	
       920.373	     6.77591e+09	
       920.530	     6.80130e+09	
       920.687	     6.82527e+09	
       920.844	     6.84220e+09	
       921.001	     6.85301e+09	
       921.158	     6.85722e+09	
       921.315	     6.85379e+09	
       921.473	     6.83812e+09	
       921.630	     6.81914e+09	
       921.944	     6.75304e+09	
       922.112	     6.70862e+09	
       922.258	     6.66995e+09	
       922.405	     6.65015e+09	
       922.551	     6.68377e+09	
       922.584	     6.69555e+09	
       922.697	     6.73601e+09	
       922.810	     6.77582e+09	
       923.036	     6.87695e+09	
       923.262	     6.95982e+09	
       923.489	     7.01587e+09	
       923.602	     7.03732e+09	
       923.715	     7.04999e+09	
       923.828	     7.05284e+09	
       923.941	     7.04666e+09	
       924.167	     7.00905e+09	
       924.281	     6.97826e+09	
       924.394	     6.93808e+09	
       924.507	     6.88285e+09	
       924.620	     6.82175e+09	
       924.846	     6.68383e+09	
       925.072	     6.52041e+09	
       925.113	     6.48865e+09	
       925.299	     6.35626e+09	
       925.484	     6.26927e+09	
       925.669	     6.39603e+09	
       925.710	     6.43351e+09	
       925.854	     6.57334e+09	
       926.039	     6.76077e+09	
       926.369	     7.07091e+09	
       926.533	     7.22830e+09	
       926.698	     7.35711e+09	
       926.862	     7.46647e+09	
       927.027	     7.56191e+09	
       927.191	     7.63442e+09	
       927.357	     7.67821e+09	
       927.521	     7.70136e+09	
       927.686	     7.70215e+09	
       927.848	     7.66897e+09	
       927.850	     7.66819e+09	
       928.015	     7.59474e+09	
       928.182	     7.52003e+09	
       928.350	     7.41253e+09	
       928.517	     7.25834e+09	
       928.613	     7.15802e+09	
       928.684	     7.07901e+09	
       928.732	     7.01945e+09	
       928.851	     6.88907e+09	
       928.917	     6.80946e+09	
       928.970	     6.73912e+09	
       929.089	     6.55317e+09	
       929.261	     6.32337e+09	
       929.325	     6.23176e+09	
       929.434	     6.05473e+09	
       929.543	     5.90029e+09	
       929.652	     5.72700e+09	
       929.719	     5.62870e+09	
       929.753	     5.57567e+09	
       929.755	     5.57293e+09	
       929.761	     5.56448e+09	
       929.769	     5.55267e+09	
       929.819	     5.48155e+09	
       929.827	     5.47039e+09	
       929.883	     5.39280e+09	
       929.910	     5.36081e+09	
       929.939	     5.33175e+09	
       929.954	     5.32016e+09	
       929.968	     5.31218e+09	
       929.982	     5.30662e+09	
       929.996	     5.30367e+09	
       930.010	     5.30317e+09	
       930.024	     5.30511e+09	
       930.038	     5.30954e+09	
       930.052	     5.31658e+09	
       930.081	     5.33923e+09	
       930.137	     5.40662e+09	
       930.201	     5.50332e+09	
       930.247	     5.57460e+09	
       930.249	     5.57796e+09	
       930.251	     5.58129e+09	
       930.301	     5.66489e+09	
       930.326	     5.70507e+09	
       930.329	     5.71032e+09	
       930.402	     5.83303e+09	
       930.478	     5.96903e+09	
       930.630	     6.23421e+09	
       930.931	     6.76193e+09	
       931.229	     7.30923e+09	
       931.232	     7.31382e+09	
       931.382	     7.58468e+09	
       931.534	     7.85436e+09	
       931.686	     8.10484e+09	
       931.838	     8.32437e+09	
       931.990	     8.51350e+09	
       932.142	     8.73199e+09	
       932.294	     8.91593e+09	
       932.447	     9.06918e+09	
       932.599	     9.19585e+09	
       932.751	     9.30106e+09	
       932.903	     9.39138e+09	
       933.055	     9.46072e+09	
       933.207	     9.51061e+09	
       933.265	     9.52509e+09	
       933.315	     9.53489e+09	
       933.359	     9.54143e+09	
       933.403	     9.54607e+09	
       933.432	     9.54771e+09	
       933.542	     9.54585e+09	
       933.652	     9.53071e+09	
       933.762	     9.50131e+09	
       933.872	     9.45717e+09	
       933.982	     9.40024e+09	
       934.092	     9.33066e+09	
       934.202	     9.24473e+09	
       934.312	     9.14175e+09	
       934.413	     9.03814e+09	
       934.533	     8.90899e+09	
       934.652	     8.75669e+09	
       934.771	     8.58063e+09	
       934.890	     8.38815e+09	
       935.009	     8.17116e+09	
       935.026	     8.13814e+09	
       935.128	     7.95445e+09	
       935.230	     7.79671e+09	
       935.332	     7.62490e+09	
       935.434	     7.44592e+09	
       935.537	     7.25523e+09	
       935.639	     7.05102e+09	
       935.741	     6.84220e+09	
       935.746	     6.83155e+09	
       935.945	     6.44991e+09	
       936.144	     6.04157e+09	
       936.343	     5.66630e+09	
       936.484	     5.38218e+09	
       936.542	     5.28183e+09	
       936.601	     5.17722e+09	
       936.605	     5.16977e+09	
       936.717	     4.95002e+09	
       936.829	     4.74494e+09	
       936.894	     4.61525e+09	
       936.938	     4.52201e+09	
       936.941	     4.51481e+09	
       936.944	     4.50737e+09	
       936.973	     4.44102e+09	
       936.987	     4.40750e+09	
       936.994	     4.39025e+09	
       937.001	     4.37501e+09	
       937.015	     4.34278e+09	
       937.029	     4.31469e+09	
       937.043	     4.29142e+09	
       937.058	     4.27492e+09	
       937.072	     4.26974e+09	
       937.086	     4.27520e+09	
       937.101	     4.29204e+09	
       937.115	     4.31561e+09	
       937.143	     4.37655e+09	
       937.150	     4.39195e+09	
       937.186	     4.47834e+09	
       937.199	     4.50768e+09	
       937.250	     4.61940e+09	
       937.314	     4.74893e+09	
       937.341	     4.79718e+09	
       937.442	     4.98530e+09	
       937.543	     5.19101e+09	
       937.645	     5.37209e+09	
       937.746	     5.58597e+09	
       937.847	     5.77802e+09	
       937.896	     5.87629e+09	
       937.948	     5.98235e+09	
       938.000	     6.08728e+09	
       938.104	     6.32384e+09	
       938.208	     6.54114e+09	
       938.312	     6.74176e+09	
       938.416	     6.98734e+09	
       938.520	     7.22827e+09	
       938.543	     7.28183e+09	
       938.729	     7.70089e+09	
       938.914	     8.10346e+09	
       938.927	     8.13104e+09	
       939.099	     8.51727e+09	
       939.271	     8.97412e+09	
       939.443	     9.40181e+09	
       939.615	     9.80290e+09	
       939.788	     1.01757e+10	
       939.960	     1.05722e+10	
       940.132	     1.09403e+10	
       940.304	     1.12882e+10	
       940.476	     1.16150e+10	
       940.556	     1.17573e+10	
       940.648	     1.19141e+10	
       940.740	     1.20639e+10	
       940.925	     1.23392e+10	
       941.109	     1.25891e+10	
       941.293	     1.28162e+10	
       941.477	     1.30344e+10	
       941.661	     1.32345e+10	
       941.845	     1.34121e+10	
       942.030	     1.35683e+10	
       942.214	     1.37001e+10	
       942.398	     1.38074e+10	
       942.485	     1.38502e+10	
       942.582	     1.38921e+10	
       942.766	     1.39547e+10	
       943.048	     1.40066e+10	
       943.329	     1.39975e+10	
       943.610	     1.39288e+10	
       943.750	     1.38701e+10	
       943.891	     1.37946e+10	
       944.031	     1.37016e+10	
       944.173	     1.35728e+10	
       944.313	     1.34209e+10	
       944.454	     1.32466e+10	
       944.594	     1.30494e+10	
       944.725	     1.28452e+10	
       944.735	     1.28287e+10	
       944.870	     1.26229e+10	
       945.016	     1.23839e+10	
       945.161	     1.21216e+10	
       945.308	     1.18356e+10	
       945.454	     1.15302e+10	
       945.599	     1.12040e+10	
       945.745	     1.08562e+10	
       945.890	     1.04928e+10	
       946.036	     1.01830e+10	
       946.181	     9.86334e+09	
       946.370	     9.45252e+09	
       946.473	     9.24643e+09	
       946.764	     8.62710e+09	
       947.158	     7.75898e+09	
       947.553	     6.91559e+09	
       947.811	     6.35064e+09	
       947.947	     6.08099e+09	
       948.083	     5.79445e+09	
       948.165	     5.62530e+09	
       948.314	     5.33009e+09	
       948.355	     5.24712e+09	
       948.546	     4.86538e+09	
       948.661	     4.62307e+09	
       948.777	     4.38453e+09	
       948.835	     4.24856e+09	
       948.893	     4.09434e+09	
       948.922	     4.00974e+09	
       948.951	     3.92504e+09	
       948.966	     3.88568e+09	
       948.980	     3.85590e+09	
       948.994	     3.83331e+09	
       949.009	     3.81883e+09	
       949.023	     3.81455e+09	
       949.037	     3.81908e+09	
       949.052	     3.83381e+09	
       949.066	     3.85665e+09	
       949.095	     3.92630e+09	
       949.153	     4.09667e+09	
       949.230	     4.29990e+09	
       949.258	     4.36361e+09	
       949.269	     4.38912e+09	
       949.280	     4.41344e+09	
       949.330	     4.52502e+09	
       949.360	     4.58471e+09	
       949.430	     4.72891e+09	
       949.500	     4.87481e+09	
       949.598	     5.06214e+09	
       949.640	     5.15400e+09	
       949.781	     5.44067e+09	
       949.963	     5.81578e+09	
       950.145	     6.20160e+09	
       950.327	     6.58007e+09	
       950.495	     6.96381e+09	
       950.509	     6.99551e+09	
       950.691	     7.39917e+09	
       950.888	     7.83252e+09	
       951.084	     8.27929e+09	
       951.280	     8.74761e+09	
       951.476	     9.20678e+09	
       951.672	     9.64968e+09	
       951.868	     1.01382e+10	
       952.065	     1.06452e+10	
       952.176	     1.09377e+10	
       952.261	     1.12028e+10	
       952.457	     1.18036e+10	
       952.738	     1.26360e+10	
       953.019	     1.34451e+10	
       953.301	     1.42180e+10	
       953.582	     1.50602e+10	
       953.863	     1.58617e+10	
       954.144	     1.65937e+10	
       954.426	     1.72624e+10	
       954.707	     1.78927e+10	
       954.988	     1.84972e+10	
       955.269	     1.90740e+10	
       955.551	     1.96137e+10	
       955.650	     1.97952e+10	
       955.832	     2.01130e+10	
       956.014	     2.04015e+10	
       956.378	     2.09285e+10	
       956.743	     2.14034e+10	
       957.107	     2.18279e+10	
       957.471	     2.22035e+10	
       957.836	     2.25305e+10	
       957.840	     2.25338e+10	
       958.200	     2.28101e+10	
       958.202	     2.28115e+10	
       958.564	     2.30440e+10	
       958.927	     2.32297e+10	
       959.289	     2.33682e+10	
       959.597	     2.34421e+10	
       959.651	     2.34515e+10	
       960.013	     2.34851e+10	
       960.430	     2.34628e+10	
       960.846	     2.33664e+10	
       961.262	     2.32028e+10	
       961.679	     2.29704e+10	
       962.095	     2.26687e+10	
       962.512	     2.22964e+10	
       962.928	     2.18588e+10	
       963.344	     2.13530e+10	
       963.761	     2.07785e+10	
       964.123	     2.02250e+10	
       964.177	     2.01382e+10	
       964.231	     2.00504e+10	
       964.339	     1.98703e+10	
       964.555	     1.94979e+10	
       964.988	     1.87079e+10	
       965.420	     1.78666e+10	
       965.852	     1.69785e+10	
       966.285	     1.60602e+10	
       966.717	     1.51111e+10	
       967.149	     1.41337e+10	
       967.960	     1.22770e+10	
       967.996	     1.21945e+10	
       968.014	     1.21533e+10	
       968.032	     1.21121e+10	
       968.104	     1.19472e+10	
       968.248	     1.16185e+10	
       968.536	     1.09608e+10	
       968.929	     1.00686e+10	
       969.113	     9.65298e+09	
       969.297	     9.25199e+09	
       969.404	     9.01926e+09	
       969.665	     8.44825e+09	
       969.927	     7.87836e+09	
       970.024	     7.66875e+09	
       970.449	     6.76655e+09	
       970.874	     5.89532e+09	
       971.155	     5.33194e+09	
       971.252	     5.13286e+09	
       971.300	     5.03475e+09	
       971.348	     4.93532e+09	
       971.496	     4.62006e+09	
       971.541	     4.52594e+09	
       971.585	     4.41856e+09	
       971.645	     4.25698e+09	
       971.674	     4.16176e+09	
       971.703	     4.06073e+09	
       971.732	     3.93409e+09	
       971.761	     3.77940e+09	
       971.778	     3.69153e+09	
       971.792	     3.62939e+09	
       971.806	     3.57702e+09	
       971.821	     3.54108e+09	
       971.836	     3.52848e+09	
       971.851	     3.54130e+09	
       971.866	     3.57749e+09	
       971.880	     3.63008e+09	
       971.910	     3.77789e+09	
       971.969	     4.06293e+09	
       972.037	     4.28940e+09	
       972.087	     4.42286e+09	
       972.137	     4.54372e+09	
       972.150	     4.57240e+09	
       972.237	     4.75703e+09	
       972.324	     4.94408e+09	
       972.499	     5.30659e+09	
       972.548	     5.40571e+09	
       972.673	     5.65562e+09	
       972.798	     5.91395e+09	
       973.048	     6.42434e+09	
       973.298	     6.95659e+09	
       973.351	     7.07041e+09	
       973.548	     7.49103e+09	
       973.746	     7.92102e+09	
       974.140	     8.79495e+09	
       974.217	     8.96617e+09	
       974.534	     9.66847e+09	
       974.572	     9.75706e+09	
       974.928	     1.05813e+10	
       975.284	     1.14182e+10	
       975.640	     1.22630e+10	
       976.352	     1.39906e+10	
       977.063	     1.57624e+10	
       977.775	     1.75406e+10	
       979.091	     2.08836e+10	
       979.198	     2.11550e+10	
       979.305	     2.14260e+10	
       979.519	     2.19655e+10	
       979.947	     2.30360e+10	
       980.804	     2.51408e+10	
       981.111	     2.58839e+10	
       981.661	     2.72085e+10	
       981.814	     2.75741e+10	
       982.517	     2.92161e+10	
       983.220	     3.08037e+10	
       983.923	     3.23345e+10	
       984.040	     3.25818e+10	
       984.627	     3.37966e+10	
       984.685	     3.39160e+10	
       985.329	     3.52028e+10	
       985.974	     3.64368e+10	
       986.618	     3.76218e+10	
       987.263	     3.87487e+10	
       987.907	     3.98222e+10	
       988.552	     4.08426e+10	
       989.080	     4.16396e+10	
       989.196	     4.18099e+10	
       989.312	     4.19786e+10	
       989.544	     4.23050e+10	
       990.009	     4.29374e+10	
       990.937	     4.41193e+10	
       991.710	     4.50184e+10	
       991.866	     4.51915e+10	
       992.795	     4.61582e+10	
       993.880	     4.71465e+10	
       994.964	     4.79385e+10	
       996.049	     4.85646e+10	
       997.134	     4.90220e+10	
       997.990	     4.92592e+10	
       998.219	     4.93032e+10	
       998.447	     4.93393e+10	
       998.487	     4.93437e+10	
       998.903	     4.93774e+10	
       999.319	     4.93824e+10	
      1000.152	     4.92913e+10	
      1000.984	     4.90817e+10	
      1001.817	     4.87497e+10	
      1002.650	     4.82941e+10	
      1003.482	     4.77085e+10	
      1004.273	     4.70284e+10	
      1004.307	     4.69963e+10	
      1004.315	     4.69888e+10	
      1004.323	     4.69813e+10	
      1004.373	     4.69323e+10	
      1004.473	     4.68333e+10	
      1004.673	     4.66294e+10	
      1005.073	     4.61984e+10	
      1005.874	     4.52452e+10	
      1006.674	     4.41686e+10	
      1007.475	     4.29676e+10	
      1008.275	     4.16456e+10	
      1008.826	     4.06701e+10	
      1009.076	     4.02086e+10	
      1009.326	     3.97364e+10	
      1009.826	     3.87544e+10	
      1010.827	     3.66759e+10	
      1011.828	     3.44608e+10	
      1012.828	     3.21297e+10	
      1013.329	     3.09293e+10	
      1013.829	     2.97103e+10	
      1014.329	     2.84749e+10	
      1015.330	     2.59863e+10	
      1016.330	     2.34925e+10	
      1017.331	     2.10187e+10	
      1017.620	     2.03107e+10	
      1018.332	     1.85857e+10	
      1018.476	     1.82396e+10	
      1019.332	     1.62213e+10	
      1019.761	     1.52345e+10	
      1020.189	     1.42632e+10	
      1020.616	     1.33107e+10	
      1021.044	     1.23784e+10	
      1021.473	     1.14643e+10	
      1021.901	     1.05658e+10	
      1022.328	     9.68421e+09	
      1022.470	     9.39556e+09	
      1022.756	     8.81773e+09	
      1023.043	     8.24612e+09	
      1023.189	     7.95706e+09	
      1023.542	     7.26594e+09	
      1023.615	     7.12406e+09	
      1024.041	     6.30043e+09	
      1024.290	     5.82093e+09	
      1024.415	     5.57941e+09	
      1024.540	     5.32817e+09	
      1024.666	     5.06755e+09	
      1024.791	     4.77952e+09	
      1024.852	     4.59307e+09	
      1024.915	     4.32610e+09	
      1024.947	     4.11922e+09	
      1024.978	     3.85822e+09	
      1024.993	     3.74877e+09	
      1025.009	     3.62420e+09	
      1025.025	     3.53960e+09	
      1025.040	     3.48937e+09	
      1025.044	     3.48022e+09	
      1025.054	     3.46813e+09	
      1025.056	     3.46731e+09	
      1025.058	     3.46709e+09	
      1025.072	     3.48038e+09	
      1025.087	     3.52471e+09	
      1025.103	     3.60413e+09	
      1025.134	     3.82988e+09	
      1025.196	     4.30002e+09	
      1025.271	     4.61902e+09	
      1025.320	     4.76894e+09	
      1025.371	     4.89554e+09	
      1025.471	     5.11860e+09	
      1025.521	     5.22400e+09	
      1025.571	     5.32758e+09	
      1025.621	     5.43075e+09	
      1025.721	     5.63036e+09	
      1025.772	     5.72986e+09	
      1025.921	     6.01920e+09	
      1026.070	     6.30844e+09	
      1026.369	     6.88866e+09	
      1026.861	     7.85546e+09	
      1026.965	     8.06236e+09	
      1027.069	     8.26999e+09	
      1027.277	     8.68823e+09	
      1027.693	     9.53411e+09	
      1027.985	     1.01339e+10	
      1028.110	     1.03937e+10	
      1028.526	     1.12684e+10	
      1028.796	     1.18439e+10	
      1029.067	     1.24283e+10	
      1029.338	     1.30190e+10	
      1029.881	     1.42278e+10	
      1030.423	     1.54676e+10	
      1030.965	     1.67349e+10	
      1031.508	     1.80306e+10	
      1032.050	     1.93533e+10	
      1032.592	     2.07026e+10	
      1033.082	     2.19421e+10	
      1033.135	     2.20747e+10	
      1033.187	     2.22075e+10	
      1033.230	     2.23174e+10	
      1033.291	     2.24736e+10	
      1033.499	     2.30082e+10	
      1033.915	     2.40857e+10	
      1033.989	     2.42770e+10	
      1034.747	     2.62794e+10	
      1035.507	     2.83179e+10	
      1036.222	     3.02692e+10	
      1036.265	     3.03873e+10	
      1037.783	     3.45795e+10	
      1039.344	     3.89146e+10	
      1040.585	     4.23455e+10	
      1042.466	     4.74626e+10	
