# Koester WD models
# teff = 50000 K (value for the effective temperature for the model. Temperatures are given in K)
# logg = 6.5 log(cm/s2) (value for Log(G) for the model.)
#
#   WAVELENGTH	#           FLUX	
#   (ANGSTROM)	#  (ERG/CM2/S/A)	
##############	################	
       899.230	     1.06390e+11	
       904.235	     1.05468e+11	
       908.450	     1.04695e+11	
       909.241	     1.04549e+11	
       910.032	     1.04403e+11	
       911.193	     1.04187e+11	
       911.613	     1.04107e+11	
       912.034	     1.04027e+11	
       912.465	     1.04044e+11	
       912.875	     1.04054e+11	
       913.037	     1.04055e+11	
       913.241	     1.04052e+11	
       913.284	     1.04051e+11	
       913.478	     1.04045e+11	
       913.531	     1.04042e+11	
       913.755	     1.04028e+11	
       913.822	     1.04020e+11	
       914.080	     1.03990e+11	
       914.165	     1.03975e+11	
       914.499	     1.03906e+11	
       914.575	     1.03881e+11	
       915.071	     1.03691e+11	
       915.540	     1.03431e+11	
       915.609	     1.03342e+11	
       915.643	     1.03303e+11	
       915.677	     1.03370e+11	
       915.741	     1.03531e+11	
       915.813	     1.03734e+11	
       915.913	     1.03973e+11	
       916.085	     1.04269e+11	
       916.257	     1.04367e+11	
       916.429	     1.04410e+11	
       916.602	     1.04911e+11	
       916.774	     1.05295e+11	
       916.858	     1.05357e+11	
       916.946	     1.05353e+11	
       917.118	     1.05105e+11	
       917.248	     1.04686e+11	
       917.378	     1.04400e+11	
       917.509	     1.04930e+11	
       917.639	     1.05612e+11	
       917.769	     1.06033e+11	
       917.899	     1.06097e+11	
       918.029	     1.05904e+11	
       918.159	     1.05269e+11	
       918.289	     1.04332e+11	
       918.420	     1.03142e+11	
       918.498	     1.02348e+11	
       918.550	     1.01904e+11	
       918.602	     1.01733e+11	
       918.706	     1.02506e+11	
       918.810	     1.03714e+11	
       918.914	     1.04800e+11	
       918.993	     1.05547e+11	
       919.018	     1.05716e+11	
       919.122	     1.06314e+11	
       919.251	     1.06737e+11	
       919.380	     1.07022e+11	
       919.510	     1.06529e+11	
       919.639	     1.05532e+11	
       919.768	     1.03772e+11	
       919.897	     1.01616e+11	
       920.026	     9.90648e+10	
       920.095	     9.76316e+10	
       920.155	     9.65631e+10	
       920.215	     9.61704e+10	
       920.335	     9.82266e+10	
       920.456	     1.01486e+11	
       920.576	     1.04647e+11	
       920.696	     1.07416e+11	
       920.816	     1.10023e+11	
       920.936	     1.11926e+11	
       921.056	     1.13414e+11	
       921.176	     1.14071e+11	
       921.296	     1.13906e+11	
       921.417	     1.13226e+11	
       921.537	     1.11766e+11	
       921.657	     1.09314e+11	
       921.777	     1.06164e+11	
       921.897	     1.02632e+11	
       922.017	     9.86093e+10	
       922.110	     9.52584e+10	
       922.137	     9.42823e+10	
       922.257	     8.98536e+10	
       922.405	     8.63215e+10	
       922.552	     9.01263e+10	
       922.588	     9.15394e+10	
       922.699	     9.60127e+10	
       922.810	     1.00457e+11	
       922.921	     1.05058e+11	
       923.032	     1.09266e+11	
       923.143	     1.13456e+11	
       923.254	     1.17320e+11	
       923.366	     1.20386e+11	
       923.477	     1.22875e+11	
       923.588	     1.25104e+11	
       923.699	     1.26557e+11	
       923.810	     1.27312e+11	
       923.921	     1.27445e+11	
       924.032	     1.26909e+11	
       924.143	     1.25944e+11	
       924.254	     1.24164e+11	
       924.366	     1.21437e+11	
       924.477	     1.18135e+11	
       924.588	     1.14356e+11	
       924.699	     1.10089e+11	
       924.810	     1.04792e+11	
       925.032	     9.49264e+10	
       925.143	     8.98342e+10	
       925.254	     8.45918e+10	
       925.366	     7.94763e+10	
       925.434	     7.68214e+10	
       925.470	     7.60331e+10	
       925.477	     7.59766e+10	
       925.484	     7.59577e+10	
       925.534	     7.68258e+10	
       925.634	     8.09482e+10	
       925.734	     8.56593e+10	
       925.834	     9.05382e+10	
       926.034	     1.00533e+11	
       926.100	     1.03690e+11	
       926.234	     1.10706e+11	
       926.369	     1.17499e+11	
       926.503	     1.23886e+11	
       926.637	     1.30213e+11	
       926.771	     1.35760e+11	
       926.905	     1.40243e+11	
       927.039	     1.44469e+11	
       927.173	     1.48012e+11	
       927.308	     1.50643e+11	
       927.442	     1.52521e+11	
       927.576	     1.53746e+11	
       927.710	     1.54297e+11	
       927.774	     1.54288e+11	
       927.844	     1.54086e+11	
       927.876	     1.53923e+11	
       927.978	     1.53089e+11	
       928.080	     1.51774e+11	
       928.182	     1.49933e+11	
       928.285	     1.47448e+11	
       928.387	     1.44446e+11	
       928.489	     1.40856e+11	
       928.591	     1.37036e+11	
       928.693	     1.33292e+11	
       928.795	     1.28998e+11	
       928.897	     1.24169e+11	
       928.909	     1.23561e+11	
       928.917	     1.23151e+11	
       928.980	     1.20034e+11	
       928.999	     1.19091e+11	
       929.089	     1.14404e+11	
       929.261	     1.05762e+11	
       929.317	     1.02639e+11	
       929.543	     9.09884e+10	
       929.655	     8.52867e+10	
       929.769	     7.94135e+10	
       929.827	     7.63951e+10	
       929.883	     7.36078e+10	
       929.910	     7.24030e+10	
       929.939	     7.10848e+10	
       929.954	     7.04609e+10	
       929.968	     6.99696e+10	
       929.982	     6.95904e+10	
       929.996	     6.93472e+10	
       930.010	     6.92661e+10	
       930.024	     6.93459e+10	
       930.038	     6.95882e+10	
       930.052	     6.99661e+10	
       930.081	     7.10788e+10	
       930.137	     7.35962e+10	
       930.201	     7.67409e+10	
       930.247	     7.91879e+10	
       930.249	     7.92900e+10	
       930.251	     7.93912e+10	
       930.301	     8.18746e+10	
       930.326	     8.30810e+10	
       930.329	     8.32531e+10	
       930.402	     8.70306e+10	
       930.478	     9.09790e+10	
       930.630	     9.89671e+10	
       930.781	     1.07217e+11	
       930.931	     1.15070e+11	
       931.081	     1.23441e+11	
       931.232	     1.31835e+11	
       931.383	     1.39441e+11	
       931.534	     1.47086e+11	
       931.788	     1.60118e+11	
       931.832	     1.62156e+11	
       931.835	     1.62292e+11	
       931.838	     1.62428e+11	
       931.888	     1.64613e+11	
       931.988	     1.68674e+11	
       932.188	     1.76055e+11	
       932.389	     1.82068e+11	
       932.589	     1.86872e+11	
       932.789	     1.90687e+11	
       932.989	     1.93612e+11	
       933.189	     1.95820e+11	
       933.347	     1.97098e+11	
       933.375	     1.97277e+11	
       933.377	     1.97290e+11	
       933.389	     1.97361e+11	
       933.403	     1.97442e+11	
       933.432	     1.97549e+11	
       933.460	     1.97634e+11	
       933.542	     1.97781e+11	
       933.652	     1.97730e+11	
       933.762	     1.97346e+11	
       933.872	     1.96650e+11	
       933.982	     1.95641e+11	
       934.092	     1.94298e+11	
       934.202	     1.92582e+11	
       934.312	     1.90461e+11	
       934.413	     1.88165e+11	
       934.422	     1.87947e+11	
       934.533	     1.85030e+11	
       934.652	     1.81363e+11	
       934.771	     1.77197e+11	
       934.890	     1.73187e+11	
       935.009	     1.68739e+11	
       935.026	     1.68068e+11	
       935.128	     1.63969e+11	
       935.230	     1.59703e+11	
       935.332	     1.55088e+11	
       935.434	     1.50200e+11	
       935.537	     1.45053e+11	
       935.542	     1.44793e+11	
       935.639	     1.39788e+11	
       935.693	     1.37153e+11	
       935.843	     1.29381e+11	
       935.994	     1.21133e+11	
       936.144	     1.12773e+11	
       936.290	     1.05162e+11	
       936.372	     1.00640e+11	
       936.445	     9.66973e+10	
       936.601	     8.83300e+10	
       936.714	     8.23499e+10	
       936.829	     7.62565e+10	
       936.887	     7.31413e+10	
       936.944	     7.01225e+10	
       936.973	     6.85951e+10	
       937.001	     6.70542e+10	
       937.015	     6.63168e+10	
       937.029	     6.57256e+10	
       937.043	     6.52625e+10	
       937.058	     6.49355e+10	
       937.072	     6.48334e+10	
       937.086	     6.49342e+10	
       937.101	     6.52603e+10	
       937.115	     6.57221e+10	
       937.143	     6.70482e+10	
       937.150	     6.74158e+10	
       937.186	     6.94116e+10	
       937.199	     7.00519e+10	
       937.250	     7.27763e+10	
       937.314	     7.61780e+10	
       937.341	     7.74883e+10	
       937.442	     8.29233e+10	
       937.491	     8.53508e+10	
       937.543	     8.82637e+10	
       937.746	     9.90871e+10	
       938.000	     1.12693e+11	
       938.103	     1.18491e+11	
       938.508	     1.40506e+11	
       938.556	     1.43087e+11	
       938.736	     1.52855e+11	
       938.914	     1.62101e+11	
       939.093	     1.70750e+11	
       939.271	     1.79276e+11	
       939.449	     1.87679e+11	
       939.628	     1.96155e+11	
       939.807	     2.03861e+11	
       939.986	     2.10886e+11	
       940.164	     2.17142e+11	
       940.343	     2.22793e+11	
       940.521	     2.27859e+11	
       940.580	     2.29389e+11	
       940.660	     2.31386e+11	
       940.700	     2.32345e+11	
       940.740	     2.33267e+11	
       940.901	     2.36289e+11	
       941.061	     2.39038e+11	
       941.381	     2.43783e+11	
       941.701	     2.47613e+11	
       942.022	     2.50709e+11	
       942.342	     2.53057e+11	
       942.662	     2.54798e+11	
       942.917	     2.55773e+11	
       942.982	     2.55964e+11	
       943.048	     2.56131e+11	
       943.178	     2.56300e+11	
       943.438	     2.56162e+11	
       943.698	     2.55487e+11	
       943.958	     2.54236e+11	
       944.219	     2.52005e+11	
       944.479	     2.48735e+11	
       944.691	     2.45295e+11	
       944.739	     2.44411e+11	
       944.845	     2.42348e+11	
       944.999	     2.38985e+11	
       945.153	     2.35168e+11	
       945.308	     2.30883e+11	
       945.462	     2.26338e+11	
       945.616	     2.21486e+11	
       945.770	     2.16228e+11	
       945.924	     2.10794e+11	
       946.078	     2.05478e+11	
       946.232	     1.99755e+11	
       946.387	     1.93652e+11	
       946.541	     1.87221e+11	
       946.695	     1.80403e+11	
       946.849	     1.73741e+11	
       947.108	     1.62003e+11	
       947.157	     1.59714e+11	
       947.208	     1.57295e+11	
       947.308	     1.52445e+11	
       947.509	     1.42337e+11	
       947.709	     1.31822e+11	
       947.735	     1.30430e+11	
       947.909	     1.20991e+11	
       948.083	     1.11432e+11	
       948.317	     9.89787e+10	
       948.431	     9.28649e+10	
       948.546	     8.68374e+10	
       948.727	     7.68798e+10	
       948.761	     7.49923e+10	
       948.771	     7.44799e+10	
       948.774	     7.43238e+10	
       948.777	     7.41664e+10	
       948.827	     7.13522e+10	
       948.835	     7.09387e+10	
       948.893	     6.76599e+10	
       948.922	     6.58968e+10	
       948.951	     6.40373e+10	
       948.966	     6.31159e+10	
       948.980	     6.23804e+10	
       948.994	     6.17998e+10	
       949.009	     6.13895e+10	
       949.023	     6.12604e+10	
       949.037	     6.13886e+10	
       949.052	     6.17976e+10	
       949.066	     6.23773e+10	
       949.095	     6.40313e+10	
       949.153	     6.76476e+10	
       949.230	     7.19695e+10	
       949.258	     7.35547e+10	
       949.269	     7.41378e+10	
       949.280	     7.47077e+10	
       949.330	     7.74648e+10	
       949.360	     7.91301e+10	
       949.430	     8.29311e+10	
       949.500	     8.67601e+10	
       949.598	     9.19129e+10	
       949.640	     9.41438e+10	
       949.781	     1.01610e+11	
       949.963	     1.11205e+11	
       950.145	     1.21137e+11	
       950.327	     1.30931e+11	
       950.495	     1.39751e+11	
       950.509	     1.40479e+11	
       950.691	     1.49742e+11	
       950.888	     1.59263e+11	
       951.084	     1.68362e+11	
       951.280	     1.77158e+11	
       951.476	     1.86038e+11	
       951.672	     1.94613e+11	
       951.868	     2.02755e+11	
       952.065	     2.10384e+11	
       952.176	     2.14509e+11	
       952.261	     2.17996e+11	
       952.457	     2.25709e+11	
       952.738	     2.36029e+11	
       952.878	     2.41039e+11	
       953.019	     2.45717e+11	
       953.160	     2.50081e+11	
       953.301	     2.54153e+11	
       953.582	     2.61553e+11	
       953.863	     2.67878e+11	
       954.144	     2.72931e+11	
       954.426	     2.76952e+11	
       954.707	     2.80420e+11	
       954.988	     2.83296e+11	
       955.269	     2.85723e+11	
       955.650	     2.88550e+11	
       955.832	     2.89738e+11	
       956.014	     2.90816e+11	
       956.378	     2.92591e+11	
       957.107	     2.95308e+11	
       957.836	     2.97139e+11	
       957.840	     2.97147e+11	
       958.148	     2.97700e+11	
       958.564	     2.98273e+11	
       958.718	     2.98434e+11	
       959.289	     2.98804e+11	
       959.859	     2.98691e+11	
       960.380	     2.98287e+11	
       960.430	     2.98233e+11	
       960.480	     2.98166e+11	
       960.580	     2.98023e+11	
       960.780	     2.97705e+11	
       961.180	     2.96930e+11	
       961.981	     2.94780e+11	
       962.782	     2.91690e+11	
       962.934	     2.90978e+11	
       963.582	     2.87427e+11	
       964.231	     2.82905e+11	
       964.555	     2.80161e+11	
       964.879	     2.77090e+11	
       965.204	     2.73651e+11	
       965.528	     2.69805e+11	
       965.852	     2.65504e+11	
       966.177	     2.60715e+11	
       966.501	     2.55398e+11	
       966.825	     2.49472e+11	
       966.915	     2.47712e+11	
       967.149	     2.42902e+11	
       967.194	     2.41936e+11	
       967.474	     2.35641e+11	
       967.753	     2.28775e+11	
       968.032	     2.21315e+11	
       968.311	     2.13237e+11	
       968.590	     2.04525e+11	
       968.870	     1.95151e+11	
       969.001	     1.90523e+11	
       969.149	     1.85108e+11	
       969.297	     1.79512e+11	
       969.593	     1.67754e+11	
       969.778	     1.60047e+11	
       969.852	     1.56885e+11	
       969.890	     1.55291e+11	
       969.927	     1.53682e+11	
       970.075	     1.47135e+11	
       970.371	     1.33513e+11	
       970.460	     1.29277e+11	
       970.667	     1.19230e+11	
       970.815	     1.11906e+11	
       970.874	     1.08965e+11	
       971.081	     9.85995e+10	
       971.110	     9.71440e+10	
       971.229	     9.11850e+10	
       971.348	     8.52622e+10	
       971.467	     7.88942e+10	
       971.585	     7.22884e+10	
       971.644	     6.88910e+10	
       971.703	     6.51862e+10	
       971.732	     6.30112e+10	
       971.762	     6.06221e+10	
       971.778	     5.93101e+10	
       971.792	     5.83658e+10	
       971.806	     5.76325e+10	
       971.821	     5.71273e+10	
       971.836	     5.69571e+10	
       971.851	     5.71264e+10	
       971.866	     5.76303e+10	
       971.880	     5.83623e+10	
       971.910	     6.06158e+10	
       971.969	     6.51730e+10	
       972.037	     6.94031e+10	
       972.087	     7.22576e+10	
       972.137	     7.50687e+10	
       972.150	     7.58245e+10	
       972.237	     8.05859e+10	
       972.324	     8.51774e+10	
       972.499	     9.38441e+10	
       972.548	     9.62857e+10	
       972.673	     1.02502e+11	
       972.798	     1.08698e+11	
       973.048	     1.20929e+11	
       973.298	     1.32798e+11	
       973.351	     1.35248e+11	
       973.548	     1.44157e+11	
       973.746	     1.52745e+11	
       973.943	     1.61001e+11	
       974.140	     1.68922e+11	
       974.337	     1.76540e+11	
       974.534	     1.83811e+11	
       974.731	     1.90751e+11	
       974.928	     1.97354e+11	
       975.006	     1.99844e+11	
       975.126	     2.03623e+11	
       975.323	     2.09568e+11	
       975.640	     2.18482e+11	
       975.957	     2.26618e+11	
       976.275	     2.34006e+11	
       976.592	     2.40704e+11	
       976.909	     2.46775e+11	
       977.226	     2.52254e+11	
       977.543	     2.57197e+11	
       977.861	     2.61665e+11	
       978.178	     2.65686e+11	
       978.495	     2.69297e+11	
       978.812	     2.72541e+11	
       978.955	     2.73888e+11	
       979.130	     2.75465e+11	
       979.305	     2.76953e+11	
       979.655	     2.79660e+11	
       980.356	     2.84215e+11	
       981.056	     2.87805e+11	
       981.757	     2.90644e+11	
       982.392	     2.92698e+11	
       982.457	     2.92885e+11	
       983.158	     2.94658e+11	
       983.923	     2.96168e+11	
       984.291	     2.96742e+11	
       984.689	     2.97280e+11	
       985.454	     2.98105e+11	
       986.618	     2.98933e+11	
       987.782	     2.99324e+11	
       988.580	     2.99419e+11	
       988.946	     2.99423e+11	
       989.140	     2.99416e+11	
       989.312	     2.99406e+11	
       990.045	     2.99271e+11	
       991.510	     2.98804e+11	
       991.596	     2.98770e+11	
       993.880	     2.97630e+11	
       996.163	     2.96079e+11	
       997.574	     2.94981e+11	
       997.806	     2.94791e+11	
       998.447	     2.94253e+11	
       999.319	     2.93471e+11	
      1001.064	     2.91780e+11	
      1001.821	     2.90997e+11	
      1004.323	     2.88143e+11	
      1006.824	     2.84681e+11	
      1008.075	     2.82662e+11	
      1009.326	     2.80374e+11	
      1010.577	     2.77718e+11	
      1011.828	     2.74573e+11	
      1013.078	     2.70754e+11	
      1013.704	     2.68515e+11	
      1014.329	     2.65988e+11	
      1014.955	     2.63119e+11	
      1015.580	     2.59836e+11	
      1016.205	     2.56061e+11	
      1016.831	     2.51695e+11	
      1017.456	     2.46630e+11	
      1018.082	     2.40705e+11	
      1018.394	     2.37356e+11	
      1018.707	     2.33725e+11	
      1019.020	     2.29786e+11	
      1019.332	     2.25505e+11	
      1019.644	     2.20865e+11	
      1019.958	     2.15822e+11	
      1020.122	     2.13010e+11	
      1020.271	     2.10365e+11	
      1020.352	     2.08858e+11	
      1020.583	     2.04441e+11	
      1020.814	     1.99755e+11	
      1021.044	     1.94790e+11	
      1021.275	     1.89520e+11	
      1021.506	     1.83962e+11	
      1021.737	     1.78098e+11	
      1021.967	     1.71911e+11	
      1022.198	     1.65383e+11	
      1022.428	     1.58517e+11	
      1022.659	     1.51307e+11	
      1022.736	     1.48802e+11	
      1022.889	     1.43753e+11	
      1023.043	     1.38548e+11	
      1023.349	     1.27661e+11	
      1023.655	     1.16174e+11	
      1023.881	     1.07315e+11	
      1023.961	     1.04119e+11	
      1024.041	     1.00893e+11	
      1024.201	     9.43521e+10	
      1024.464	     8.34897e+10	
      1024.502	     8.19001e+10	
      1024.521	     8.11065e+10	
      1024.540	     8.03154e+10	
      1024.617	     7.70736e+10	
      1024.703	     7.29525e+10	
      1024.747	     7.08621e+10	
      1024.769	     6.96588e+10	
      1024.791	     6.84682e+10	
      1024.843	     6.56037e+10	
      1024.852	     6.50759e+10	
      1024.879	     6.34209e+10	
      1024.915	     6.07930e+10	
      1024.947	     5.79809e+10	
      1024.978	     5.48205e+10	
      1024.993	     5.33628e+10	
      1025.009	     5.20681e+10	
      1025.025	     5.10810e+10	
      1025.040	     5.04574e+10	
      1025.044	     5.03556e+10	
      1025.054	     5.02061e+10	
      1025.056	     5.01964e+10	
      1025.058	     5.01939e+10	
      1025.072	     5.03547e+10	
      1025.087	     5.08734e+10	
      1025.103	     5.17816e+10	
      1025.134	     5.44240e+10	
      1025.196	     6.04059e+10	
      1025.271	     6.54595e+10	
      1025.320	     6.81575e+10	
      1025.371	     7.09268e+10	
